cellnumber     x-coordinate     y-coordinate velocity-magnitude       y-velocity       x-velocity         pressure     y-coordinate     x-coordinate 
         1  1.389565039E-02  1.000000000E+00  1.335935394E-06  1.331651561E-06 -1.069000746E-07  1.514687598E-09  1.013870597E+00  1.389546599E-02 
         2  4.168695211E-02  1.000000000E+00  4.018495929E-06  3.959944934E-06 -6.834800388E-07  1.343174461E-09  1.013834000E+00  4.168657959E-02 
         3  6.947825104E-02  1.000000000E+00  6.670943549E-06  6.454865343E-06 -1.684103154E-06  1.048140907E-09  1.013797402E+00  6.947769225E-02 
         4  9.726954997E-02  1.000000000E+00  9.242598026E-06  8.701311344E-06 -3.116535481E-06  7.935447854E-10  1.013760924E+00  9.726880491E-02 
         5  1.250588149E-01  1.000000000E+00  1.168130439E-05  1.061497278E-05 -4.875983905E-06  5.647896040E-10  1.013730288E+00  1.250580400E-01 
         6  1.528460681E-01  1.000000000E+00  1.395728668E-05  1.213246196E-05 -6.899943401E-06  3.730833975E-10  1.013705492E+00  1.528456062E-01 
         7  1.806333065E-01  1.000000000E+00  1.604579120E-05  1.321250147E-05 -9.104791388E-06  2.113990927E-10  1.013680696E+00  1.806331873E-01 
         8  2.084205449E-01  9.999999404E-01  1.793399315E-05  1.383043582E-05 -1.141696703E-05  8.131273432E-11  1.013655901E+00  2.084207535E-01 
         9  2.362048030E-01  1.000000000E+00  1.962098759E-05  1.398549284E-05 -1.376187356E-05 -2.129455987E-11  1.013642788E+00  2.362052500E-01 
        10  2.639860511E-01  1.000000000E+00  2.110914465E-05  1.368605626E-05 -1.607133709E-05 -9.791965849E-11  1.013641477E+00  2.639864087E-01 
        11  2.917673290E-01  1.000000000E+00  2.240347385E-05  1.295253514E-05 -1.827970118E-05 -1.521493626E-10  1.013640285E+00  2.917675376E-01 
        12  3.195486069E-01  1.000000000E+00  2.351368130E-05  1.181833613E-05 -2.032781595E-05 -1.861600873E-10  1.013639092E+00  3.195486963E-01 
        13  3.473210931E-01  9.999999404E-01  2.445147038E-05  1.032792898E-05 -2.216321991E-05 -2.035657753E-10  1.013656378E+00  3.473210037E-01 
        14  3.750847876E-01  1.000000000E+00  2.522672185E-05  8.532055290E-06 -2.374008182E-05 -2.072456512E-10  1.013692260E+00  3.750845790E-01 
        15  4.028484821E-01  1.000000000E+00  2.584470531E-05  6.486786333E-06 -2.501740164E-05 -2.007452815E-10  1.013728023E+00  4.028481245E-01 
        16  4.306122065E-01  1.000000000E+00  2.630944255E-05  4.255239219E-06 -2.596304512E-05 -1.878026484E-10  1.013763905E+00  4.306116998E-01 
        17  4.583686590E-01  1.000000000E+00  2.662265797E-05  1.906237571E-06 -2.655432399E-05 -1.724851512E-10  1.013808846E+00  4.583683014E-01 
        18  4.829562306E-01  1.000000000E+00  2.677935117E-05 -4.913747489E-07 -2.677484190E-05 -1.555837265E-10  1.013862610E+00  4.861177504E-01 
        19  4.968308806E-01  1.000000000E+00  2.341525396E-05 -5.044253157E-07 -2.340982064E-05 -1.204931849E-10  9.861067533E-01  4.861189127E-01 
        20  5.138671994E-01  1.000000000E+00  2.338561899E-05 -2.523151579E-06 -2.324910383E-05 -1.227605378E-10  9.861602187E-01  5.138686299E-01 
        21  5.416164398E-01  1.000000000E+00  2.318977204E-05 -4.455133876E-06 -2.275779661E-05 -1.326019988E-10  9.862136245E-01  5.416183472E-01 
        22  5.693724155E-01  1.000000000E+00  2.281804700E-05 -6.240667972E-06 -2.194805893E-05 -1.523804000E-10  9.862567186E-01  5.693746209E-01 
        23  5.971350670E-01  1.000000000E+00  2.226034303E-05 -7.822729458E-06 -2.084053267E-05 -1.849068398E-10  9.862894416E-01  5.971373320E-01 
        24  6.248977780E-01  1.000000000E+00  2.151106673E-05 -9.151374798E-06 -1.946736666E-05 -2.319141823E-10  9.863221645E-01  6.249001026E-01 
        25  6.526604295E-01  1.000000000E+00  2.056464837E-05 -1.018403327E-05 -1.786589564E-05 -2.965639956E-10  9.863548875E-01  6.526628733E-01 
        26  6.804367304E-01  1.000000000E+00  1.941814662E-05 -1.088687804E-05 -1.607918966E-05 -3.796566395E-10  9.863669276E-01  6.804382801E-01 
        27  7.082266808E-01  1.000000000E+00  1.807436456E-05 -1.123344919E-05 -1.415953011E-05 -4.830243983E-10  9.863578677E-01  7.082268596E-01 
        28  7.360165715E-01  1.000000000E+00  1.655354026E-05 -1.122421236E-05 -1.216703458E-05 -6.061243729E-10  9.863487482E-01  7.360154390E-01 
        29  7.638064623E-01  1.000000000E+00  1.487151621E-05 -1.085950953E-05 -1.016036640E-05 -7.483858533E-10  9.863396883E-01  7.638040185E-01 
        30  7.915935516E-01  9.999999404E-01  1.305610203E-05 -1.015981979E-05 -8.199991498E-06 -9.091010722E-10  9.863242507E-01  7.915916443E-01 
        31  8.193776608E-01  9.999999404E-01  1.114335373E-05 -9.160163245E-06 -6.345529528E-06 -1.085888157E-09  9.863035679E-01  8.193773627E-01 
        32  8.471618295E-01  1.000000000E+00  9.177939319E-06 -7.910399290E-06 -4.654047643E-06 -1.276947548E-09  9.862828255E-01  8.471630812E-01 
        33  8.749459982E-01  1.000000000E+00  7.210323929E-06 -6.474166639E-06 -3.173946652E-06 -1.477107325E-09  9.862621427E-01  8.749487996E-01 
        34  9.027333260E-01  1.000000000E+00  5.299369150E-06 -4.926741440E-06 -1.952058028E-06 -1.686534579E-09  9.862345457E-01  9.027361274E-01 
        35  9.305237532E-01  1.000000000E+00  3.505151199E-06 -3.356210982E-06 -1.010907340E-06 -1.892030532E-09  9.861993194E-01  9.305258393E-01 
        36  9.583142996E-01  1.000000000E+00  1.897905690E-06 -1.856422386E-06 -3.946418587E-07 -2.103173635E-09  9.861640930E-01  9.583154917E-01 
        37  9.861047268E-01  1.000000000E+00  5.355366852E-07 -5.330182375E-07 -5.187585117E-08 -2.215169825E-09  9.861288667E-01  9.861052036E-01 
