cellnumber     x-coordinate     y-coordinate     y-wall-shear     x-wall-shear       wall-shear velocity-magnitude       y-velocity       x-velocity         pressure     y-coordinate     x-coordinate 
         1  9.276414730E-16  9.814814925E-01  1.897475272E-06 -0.000000000E+00  1.897475272E-06  0.000000000E+00  0.000000000E+00  0.000000000E+00 -2.149085276E-06  9.814784527E-01  1.852055639E-02 
         2  8.388351506E-16  9.444444180E-01  5.228816917E-07 -0.000000000E+00  5.228816917E-07  0.000000000E+00  0.000000000E+00  0.000000000E+00 -1.125976610E-06  9.444390535E-01  1.852080785E-02 
         3  8.059396732E-16  9.074074030E-01  3.807150790E-07 -0.000000000E+00  3.807150790E-07  0.000000000E+00  0.000000000E+00  0.000000000E+00 -5.467925348E-07  9.073989987E-01  1.852284558E-02 
         4  7.730441958E-16  8.703703880E-01  2.708270586E-07 -0.000000000E+00  2.708270301E-07  0.000000000E+00  0.000000000E+00  0.000000000E+00 -2.922758142E-07  8.703568578E-01  1.852511801E-02 
         5  7.401487184E-16  8.333333731E-01  1.953962538E-07 -0.000000000E+00  1.953962538E-07  0.000000000E+00  0.000000000E+00  0.000000000E+00 -1.685832558E-07  8.333178759E-01  1.852555573E-02 
         6  7.072531880E-16  7.962962985E-01  1.447319562E-07 -0.000000000E+00  1.447319562E-07  0.000000000E+00  0.000000000E+00  0.000000000E+00 -8.622547654E-08  7.962780595E-01  1.852757856E-02 
         7  6.743576577E-16  7.592592239E-01  1.060196269E-07 -0.000000000E+00  1.060196269E-07  0.000000000E+00  0.000000000E+00  0.000000000E+00 -3.654122693E-08  7.592371106E-01  1.852999814E-02 
         8  6.414621802E-16  7.222222090E-01  7.792018408E-08 -0.000000000E+00  7.792018408E-08  0.000000000E+00  0.000000000E+00  0.000000000E+00 -4.248553065E-09  7.221991420E-01  1.853102446E-02 
         9  6.085667028E-16  6.851851940E-01  5.584229612E-08 -0.000000000E+00  5.584229612E-08  0.000000000E+00  0.000000000E+00  0.000000000E+00  1.528050220E-08  6.851601601E-01  1.853300817E-02 
        10  5.756712254E-16  6.481481791E-01  3.896306922E-08 -0.000000000E+00  3.896306922E-08  0.000000000E+00  0.000000000E+00  0.000000000E+00  2.660154763E-08  6.481221318E-01  1.853489503E-02 
        11  5.427756950E-16  6.111111045E-01  2.579795222E-08 -0.000000000E+00  2.579795222E-08  0.000000000E+00  0.000000000E+00  0.000000000E+00  3.213555289E-08  6.110857129E-01  1.853593998E-02 
        12  5.098802176E-16  5.740740895E-01  1.568557373E-08 -0.000000000E+00  1.568557373E-08  0.000000000E+00  0.000000000E+00  0.000000000E+00  3.379227564E-08  5.740485787E-01  1.853680238E-02 
        13  4.769846873E-16  5.370370150E-01  8.037477350E-09 -0.000000000E+00  8.037477350E-09  0.000000000E+00  0.000000000E+00  0.000000000E+00  3.258236347E-08  5.370125175E-01  1.853825711E-02 
        14  4.440892099E-16  5.000000000E-01  2.385472264E-09 -0.000000000E+00  2.385472264E-09  0.000000000E+00  0.000000000E+00  0.000000000E+00  2.992816306E-08  4.999762475E-01  1.853904314E-02 
        15  4.111937324E-16  4.629629850E-01 -1.614399059E-09 -1.873501354E-16  1.614399059E-09  0.000000000E+00  0.000000000E+00  0.000000000E+00  2.614109462E-08  4.629395604E-01  1.853945479E-02 
        16  3.782982021E-16  4.259259105E-01 -4.387882946E-09 -0.000000000E+00  4.387882946E-09  0.000000000E+00  0.000000000E+00  0.000000000E+00  2.230276941E-08  4.259051085E-01  1.853922941E-02 
        17  3.454027247E-16  3.888888955E-01 -6.117659712E-09 -0.000000000E+00  6.117659712E-09  0.000000000E+00  0.000000000E+00  0.000000000E+00  1.791272730E-08  3.888696134E-01  1.853934117E-02 
        18  3.125072208E-16  3.518518507E-01 -6.898220661E-09 -0.000000000E+00  6.898220661E-09  0.000000000E+00  0.000000000E+00  0.000000000E+00  1.397103944E-08  3.518344164E-01  1.853832975E-02 
        19  2.796117169E-16  3.148148060E-01 -7.115681822E-09 -0.000000000E+00  7.115681822E-09  0.000000000E+00  0.000000000E+00  0.000000000E+00  1.027656271E-08  3.148007393E-01  1.853669435E-02 
        20  2.467162395E-16  2.777777910E-01 -6.715406897E-09 -0.000000000E+00  6.715406453E-09  0.000000000E+00  0.000000000E+00  0.000000000E+00  7.100174226E-09  2.777646780E-01  1.853587665E-02 
        21  2.138207356E-16  2.407407463E-01 -5.936991787E-09 -0.000000000E+00  5.936991787E-09  0.000000000E+00  0.000000000E+00  0.000000000E+00  4.450829039E-09  2.407294512E-01  1.853412762E-02 
        22  1.809252317E-16  2.037037015E-01 -4.870643888E-09 -0.000000000E+00  4.870643888E-09  0.000000000E+00  0.000000000E+00  0.000000000E+00  2.389027864E-09  2.036953866E-01  1.853119209E-02 
        23  1.480297278E-16  1.666666567E-01 -3.648721103E-09 -0.000000000E+00  3.648721103E-09  0.000000000E+00  0.000000000E+00  0.000000000E+00  9.315197502E-10  1.666592658E-01  1.853004657E-02 
        24  1.151342371E-16  1.296296269E-01 -2.399140220E-09 -0.000000000E+00  2.399140220E-09  0.000000000E+00  0.000000000E+00  0.000000000E+00  7.759023285E-11  1.296242326E-01  1.852793060E-02 
        25  8.223874649E-17  9.259259701E-02 -1.231059810E-09 -0.000000000E+00  1.231059810E-09  0.000000000E+00  0.000000000E+00  0.000000000E+00 -2.561215129E-10  9.258991480E-02  1.852434501E-02 
        26  4.934324591E-17  5.555555597E-02 -4.144253829E-10 -0.000000000E+00  4.144253829E-10  0.000000000E+00  0.000000000E+00  0.000000000E+00 -1.398847704E-10  5.555330962E-02  1.852265187E-02 
        27  1.644774864E-17  1.851851866E-02  9.374185456E-12 -0.000000000E+00  9.374185456E-12  0.000000000E+00  0.000000000E+00  0.000000000E+00  0.000000000E+00  1.851808466E-02  1.852021180E-02 
        28  1.851851866E-02  0.000000000E+00 -0.000000000E+00 -9.481169322E-12  9.481169322E-12  0.000000000E+00  0.000000000E+00  0.000000000E+00  0.000000000E+00  1.851808466E-02  1.852021180E-02 
        29  5.555555597E-02  0.000000000E+00 -0.000000000E+00  4.133187403E-10  4.133187403E-10  0.000000000E+00  0.000000000E+00  0.000000000E+00  1.403649419E-10  1.851627417E-02  5.555969104E-02 
        30  9.259259701E-02  0.000000000E+00 -0.000000000E+00  1.226668100E-09  1.226668100E-09  0.000000000E+00  0.000000000E+00  0.000000000E+00  2.622737860E-10  1.851584017E-02  9.259841591E-02 
        31  1.296296269E-01  0.000000000E+00 -0.000000000E+00  2.384507924E-09  2.384507924E-09  0.000000000E+00  0.000000000E+00  0.000000000E+00 -5.438562795E-11  1.851375774E-02  1.296399385E-01 
        32  1.666666567E-01  0.000000000E+00 -0.000000000E+00  3.623735756E-09  3.623735756E-09  0.000000000E+00  0.000000000E+00  0.000000000E+00 -8.642435101E-10  1.851189137E-02  1.666797101E-01 
        33  2.037037015E-01  0.000000000E+00 -0.000000000E+00  4.859180169E-09  4.859180169E-09  0.000000000E+00  0.000000000E+00  0.000000000E+00 -2.213186523E-09  1.851162128E-02  2.037187964E-01 
        34  2.407407463E-01  0.000000000E+00 -0.000000000E+00  5.992238705E-09  5.992238705E-09  0.000000000E+00  0.000000000E+00  0.000000000E+00 -4.080419114E-09  1.850987040E-02  2.407606393E-01 
        35  2.777777910E-01  0.000000000E+00 -0.000000000E+00  6.984552936E-09  6.984553380E-09  0.000000000E+00  0.000000000E+00  0.000000000E+00 -6.435144861E-09  1.850846782E-02  2.778001726E-01 
        36  3.148148060E-01  0.000000000E+00 -0.000000000E+00  7.805467384E-09  7.805467384E-09  0.000000000E+00  0.000000000E+00  0.000000000E+00 -9.248294575E-09  1.850858331E-02  3.148392737E-01 
        37  3.518518507E-01  0.000000000E+00 -0.000000000E+00  8.442458288E-09  8.442457400E-09  0.000000000E+00  0.000000000E+00  0.000000000E+00 -1.246435399E-08  1.850764267E-02  3.518803120E-01 
        38  3.888888955E-01  0.000000000E+00 -0.000000000E+00  8.886356540E-09  8.886356540E-09  0.000000000E+00  0.000000000E+00  0.000000000E+00 -1.609276978E-08  1.850708015E-02  3.889189065E-01 
        39  4.259259105E-01  0.000000000E+00 -0.000000000E+00  9.156765124E-09  9.156765124E-09  0.000000000E+00  0.000000000E+00  0.000000000E+00 -2.012992084E-08  1.850754023E-02  4.259574413E-01 
        40  4.629629850E-01  0.000000000E+00 -0.000000000E+00  9.197780315E-09  9.197780315E-09  0.000000000E+00  0.000000000E+00  0.000000000E+00 -2.462981108E-08  1.850741170E-02  4.629966021E-01 
        41  5.000000000E-01  0.000000000E+00 -0.000000000E+00  9.022353531E-09  9.022353531E-09  0.000000000E+00  0.000000000E+00  0.000000000E+00 -2.950090483E-08  1.850752532E-02  5.000340343E-01 
        42  5.370370150E-01  0.000000000E+00 -0.000000000E+00  8.657776718E-09  8.657776718E-09  0.000000000E+00  0.000000000E+00  0.000000000E+00 -3.488135647E-08  1.850795560E-02  5.370716453E-01 
        43  5.740740895E-01  0.000000000E+00 -0.000000000E+00  8.095682347E-09  8.095682347E-09  0.000000000E+00  0.000000000E+00  0.000000000E+00 -4.081379856E-08  1.850749925E-02  5.741077065E-01 
        44  6.111111045E-01  0.000000000E+00 -0.000000000E+00  7.172178851E-09  7.172178851E-09  0.000000000E+00  0.000000000E+00  0.000000000E+00 -4.763464645E-08  1.850782149E-02  6.111434102E-01 
        45  6.481481791E-01  0.000000000E+00 -0.000000000E+00  5.770164346E-09  5.770164346E-09  0.000000000E+00  0.000000000E+00  0.000000000E+00 -5.492302435E-08  1.850724965E-02  6.481790543E-01 
        46  6.851851940E-01  0.000000000E+00 -0.000000000E+00  4.078342553E-09  4.078342553E-09  0.000000000E+00  0.000000000E+00  0.000000000E+00 -6.298172650E-08  1.850797236E-02  6.852147579E-01 
        47  7.222222090E-01  0.000000000E+00 -0.000000000E+00  1.863060595E-09  1.863060595E-09  0.000000000E+00  0.000000000E+00  0.000000000E+00 -7.233668242E-08  1.850851439E-02  7.222514153E-01 
        48  7.592592239E-01  0.000000000E+00 -0.000000000E+00 -1.426372243E-09  1.426372243E-09  0.000000000E+00  0.000000000E+00  0.000000000E+00 -8.281729436E-08  1.850891486E-02  7.592883706E-01 
        49  7.962962985E-01  0.000000000E+00 -0.000000000E+00 -5.509213530E-09  5.509213530E-09  0.000000000E+00  0.000000000E+00  0.000000000E+00 -9.374075916E-08  1.851005480E-02  7.963246703E-01 
        50  8.333333731E-01  0.000000000E+00 -0.000000000E+00 -1.052765075E-08  1.052765075E-08  0.000000000E+00  0.000000000E+00  0.000000000E+00 -1.062548520E-07  1.851111464E-02  8.333607316E-01 
        51  8.703703880E-01  0.000000000E+00 -3.747002708E-16 -1.702058405E-08  1.702058405E-08  0.000000000E+00  0.000000000E+00  0.000000000E+00 -1.197844028E-07  1.851171255E-02  8.703973293E-01 
        52  9.074074030E-01  0.000000000E+00 -0.000000000E+00 -2.501982976E-08  2.501982976E-08  0.000000000E+00  0.000000000E+00  0.000000000E+00 -1.342988867E-07  1.851323433E-02  9.074329138E-01 
        53  9.444444180E-01  0.000000000E+00 -0.000000000E+00 -3.480362309E-08  3.480362309E-08  0.000000000E+00  0.000000000E+00  0.000000000E+00 -1.495562429E-07  1.851418242E-02  9.444689751E-01 
        54  9.814814925E-01  0.000000000E+00 -0.000000000E+00 -4.656285668E-08  4.656285668E-08  0.000000000E+00  0.000000000E+00  0.000000000E+00 -1.652046961E-07  1.851464435E-02  9.815055132E-01 
        55  1.018518448E+00  0.000000000E+00 -0.000000000E+00 -6.047640966E-08  6.047640966E-08  0.000000000E+00  0.000000000E+00  0.000000000E+00 -1.806822354E-07  1.851686276E-02  1.018541694E+00 
        56  1.055555582E+00  0.000000000E+00 -0.000000000E+00 -7.662999479E-08  7.662999479E-08  0.000000000E+00  0.000000000E+00  0.000000000E+00 -1.952025457E-07  1.851840690E-02  1.055577874E+00 
        57  1.092592597E+00  0.000000000E+00 -0.000000000E+00 -9.503457221E-08  9.503457221E-08  0.000000000E+00  0.000000000E+00  0.000000000E+00 -2.077906061E-07  1.851967722E-02  1.092614889E+00 
        58  1.129629612E+00  0.000000000E+00 -0.000000000E+00 -1.154183451E-07  1.154183380E-07  0.000000000E+00  0.000000000E+00  0.000000000E+00 -2.171843363E-07  1.852196641E-02  1.129650593E+00 
        59  1.166666746E+00  0.000000000E+00 -0.000000000E+00 -1.381817185E-07  1.381817043E-07  0.000000000E+00  0.000000000E+00  0.000000000E+00 -2.219253474E-07  1.852328889E-02  1.166686416E+00 
        60  1.203703642E+00  0.000000000E+00 -0.000000000E+00 -1.615231895E-07  1.615231895E-07  0.000000000E+00  0.000000000E+00  0.000000000E+00 -2.195415476E-07  1.852403581E-02  1.203722954E+00 
        61  1.240740776E+00  0.000000000E+00 -0.000000000E+00 -1.862915724E-07  1.862915724E-07  0.000000000E+00  0.000000000E+00  0.000000000E+00 -2.087224544E-07  1.852625050E-02  1.240758300E+00 
        62  1.277777672E+00  0.000000000E+00 -0.000000000E+00 -2.103748642E-07  2.103748642E-07  0.000000000E+00  0.000000000E+00  0.000000000E+00 -1.878577791E-07  1.852769777E-02  1.277794123E+00 
        63  1.314814806E+00  0.000000000E+00 -0.000000000E+00 -2.330977367E-07  2.330977367E-07  0.000000000E+00  0.000000000E+00  0.000000000E+00 -1.550236561E-07  1.852858812E-02  1.314830661E+00 
        64  1.351851940E+00  0.000000000E+00 -0.000000000E+00 -2.531341181E-07  2.531341181E-07  0.000000000E+00  0.000000000E+00  0.000000000E+00 -1.093681732E-07  1.853092015E-02  1.351866245E+00 
        65  1.388888836E+00  0.000000000E+00 -0.000000000E+00 -2.689181713E-07  2.689181713E-07  0.000000000E+00  0.000000000E+00  0.000000000E+00 -5.032296713E-08  1.853219979E-02  1.388902426E+00 
        66  1.425925970E+00  0.000000000E+00 -0.000000000E+00 -2.780892885E-07  2.780892885E-07  0.000000000E+00  0.000000000E+00  0.000000000E+00  2.149003286E-08  1.853308268E-02  1.425939202E+00 
        67  1.462962866E+00  0.000000000E+00 -0.000000000E+00 -2.801867254E-07  2.801867254E-07  0.000000000E+00  0.000000000E+00  0.000000000E+00  1.031538375E-07  1.853484847E-02  1.462974668E+00 
        68  1.500000000E+00  0.000000000E+00 -0.000000000E+00 -2.738968305E-07  2.738968305E-07  0.000000000E+00  0.000000000E+00  0.000000000E+00  1.907691853E-07  1.853591762E-02  1.500010610E+00 
        69  1.537037134E+00  0.000000000E+00 -0.000000000E+00 -2.589383143E-07  2.589383143E-07  0.000000000E+00  0.000000000E+00  0.000000000E+00  2.803874111E-07  1.853640378E-02  1.537047029E+00 
        70  1.574074030E+00  0.000000000E+00 -0.000000000E+00 -2.352837782E-07  2.352837782E-07  0.000000000E+00  0.000000000E+00  0.000000000E+00  3.663184600E-07  1.853682287E-02  1.574081659E+00 
        71  1.611111164E+00  0.000000000E+00 -0.000000000E+00 -2.041170148E-07  2.041170291E-07  0.000000000E+00  0.000000000E+00  0.000000000E+00  4.428951286E-07  1.853695139E-02  1.611117601E+00 
        72  1.648148060E+00  0.000000000E+00 -0.000000000E+00 -1.677497607E-07  1.677497607E-07  0.000000000E+00  0.000000000E+00  0.000000000E+00  5.052300480E-07  1.853629947E-02  1.648153305E+00 
        73  1.685185194E+00  0.000000000E+00 -0.000000000E+00 -1.289849081E-07  1.289849081E-07  0.000000000E+00  0.000000000E+00  0.000000000E+00  5.504685987E-07  1.853597350E-02  1.685188651E+00 
        74  1.722222328E+00  0.000000000E+00 -0.000000000E+00 -9.045739802E-08  9.045739802E-08  0.000000000E+00  0.000000000E+00  0.000000000E+00  5.776055900E-07  1.853587665E-02  1.722225308E+00 
        75  1.759259224E+00  0.000000000E+00 -0.000000000E+00 -5.481463106E-08  5.481463106E-08  0.000000000E+00  0.000000000E+00  0.000000000E+00  5.878794695E-07  1.853542402E-02  1.759261727E+00 
        76  1.796296358E+00  0.000000000E+00 -0.000000000E+00 -2.701719914E-08  2.701719914E-08  0.000000000E+00  0.000000000E+00  0.000000000E+00  5.838339234E-07  1.853346638E-02  1.796297312E+00 
        77  1.833333254E+00  0.000000000E+00 -0.000000000E+00 -6.661766694E-09  6.661766694E-09  0.000000000E+00  0.000000000E+00  0.000000000E+00  5.719296610E-07  1.853189059E-02  1.833334446E+00 
        78  1.870370388E+00  0.000000000E+00 -3.747002708E-16  4.422959776E-09  4.422959776E-09  0.000000000E+00  0.000000000E+00  0.000000000E+00  5.565918286E-07  1.853002980E-02  1.870370507E+00 
        79  1.907407403E+00  0.000000000E+00 -0.000000000E+00  8.339259061E-09  8.339259061E-09  0.000000000E+00  0.000000000E+00  0.000000000E+00  5.432987109E-07  1.852594689E-02  1.907406807E+00 
        80  1.944444418E+00  0.000000000E+00 -0.000000000E+00  6.039690525E-09  6.039690525E-09  0.000000000E+00  0.000000000E+00  0.000000000E+00  5.331006037E-07  1.852348633E-02  1.944444537E+00 
        81  1.981481552E+00  0.000000000E+00 -0.000000000E+00  3.759668132E-10  3.759668132E-10  0.000000000E+00  0.000000000E+00  0.000000000E+00  5.291256002E-07  1.852097921E-02  1.981480718E+00 
        82  2.000000000E+00  1.851851866E-02  6.505760375E-10 -0.000000000E+00  6.505760375E-10  0.000000000E+00  0.000000000E+00  0.000000000E+00  5.291256002E-07  1.852097921E-02  1.981480718E+00 
        83  2.000000000E+00  5.555555597E-02  5.889508881E-09 -0.000000000E+00  5.889508881E-09  0.000000000E+00  0.000000000E+00  0.000000000E+00  5.246778869E-07  5.556052178E-02  1.981481671E+00 
        84  2.000000000E+00  9.259259701E-02  9.491609276E-09 -0.000000000E+00  9.491609276E-09  0.000000000E+00  0.000000000E+00  0.000000000E+00  5.157036185E-07  9.260001779E-02  1.981480837E+00 
        85  2.000000000E+00  1.296296269E-01  9.569229853E-09 -9.367506770E-17  9.569229853E-09  0.000000000E+00  0.000000000E+00  0.000000000E+00  4.994029155E-07  1.296418905E-01  1.981480718E+00 
        86  2.000000000E+00  1.666666567E-01  6.331730695E-09 -0.000000000E+00  6.331731139E-09  0.000000000E+00  0.000000000E+00  0.000000000E+00  4.797764745E-07  1.666810215E-01  1.981481075E+00 
        87  2.000000000E+00  2.037037015E-01 -9.427003622E-10 -0.000000000E+00  9.427003622E-10  0.000000000E+00  0.000000000E+00  0.000000000E+00  4.544076546E-07  2.037203908E-01  1.981479883E+00 
        88  2.000000000E+00  2.407407463E-01 -1.247088388E-08 -0.000000000E+00  1.247088388E-08  0.000000000E+00  0.000000000E+00  0.000000000E+00  4.266007920E-07  2.407612801E-01  1.981478691E+00 
        89  2.000000000E+00  2.777777910E-01 -2.802247145E-08 -0.000000000E+00  2.802247145E-08  0.000000000E+00  0.000000000E+00  0.000000000E+00  3.937720123E-07  2.777993381E-01  1.981478095E+00 
        90  2.000000000E+00  3.148148060E-01 -4.927277075E-08 -0.000000000E+00  4.927277075E-08  0.000000000E+00  0.000000000E+00  0.000000000E+00  3.570329739E-07  3.148381412E-01  1.981476545E+00 
        91  2.000000000E+00  3.518518507E-01 -7.675572533E-08 -0.000000000E+00  7.675572533E-08  0.000000000E+00  0.000000000E+00  0.000000000E+00  3.171185767E-07  3.518767357E-01  1.981474400E+00 
        92  2.000000000E+00  3.888888955E-01 -1.113098875E-07 -0.000000000E+00  1.113098875E-07  0.000000000E+00  0.000000000E+00  0.000000000E+00  2.756549975E-07  3.889133036E-01  1.981472969E+00 
        93  2.000000000E+00  4.259259105E-01 -1.535134828E-07 -0.000000000E+00  1.535134970E-07  0.000000000E+00  0.000000000E+00  0.000000000E+00  2.350813730E-07  4.259508550E-01  1.981471419E+00 
        94  2.000000000E+00  4.629629850E-01 -2.035793614E-07 -0.000000000E+00  2.035793756E-07  0.000000000E+00  0.000000000E+00  0.000000000E+00  1.991756875E-07  4.629859924E-01  1.981469631E+00 
        95  2.000000000E+00  5.000000000E-01 -2.621357567E-07 -0.000000000E+00  2.621357567E-07  0.000000000E+00  0.000000000E+00  0.000000000E+00  1.730091839E-07  5.000211000E-01  1.981468320E+00 
        96  2.000000000E+00  5.370370150E-01 -3.282689818E-07 -0.000000000E+00  3.282689818E-07  0.000000000E+00  0.000000000E+00  0.000000000E+00  1.638837119E-07  5.370566845E-01  1.981468081E+00 
        97  2.000000000E+00  5.740740895E-01 -4.021019322E-07 -0.000000000E+00  4.021019322E-07  0.000000000E+00  0.000000000E+00  0.000000000E+00  1.808850669E-07  5.740898848E-01  1.981467485E+00 
        98  2.000000000E+00  6.111111045E-01 -4.850070354E-07 -0.000000000E+00  4.850070354E-07  0.000000000E+00  0.000000000E+00  0.000000000E+00  2.337183389E-07  6.111250520E-01  1.981467009E+00 
        99  2.000000000E+00  6.481481791E-01 -5.747632486E-07 -0.000000000E+00  5.747632486E-07  0.000000000E+00  0.000000000E+00  0.000000000E+00  3.358021274E-07  6.481601596E-01  1.981467724E+00 
