cellnumber     x-coordinate     y-coordinate     y-wall-shear     x-wall-shear       wall-shear velocity-magnitude       y-velocity       x-velocity         pressure     y-coordinate     x-coordinate 
         1  9.327022831E-16  9.871795177E-01  1.335055913E-06 -0.000000000E+00  1.335055913E-06  0.000000000E+00  0.000000000E+00  0.000000000E+00 -1.995458206E-06  9.872229099E-01  1.219300274E-02 
         2  8.540176868E-16  9.615384340E-01  4.814023100E-07 -0.000000000E+00  4.814023100E-07  0.000000000E+00  0.000000000E+00  0.000000000E+00 -1.123737547E-06  9.616132975E-01  1.218760852E-02 
         3  8.312439355E-16  9.358974695E-01  3.645363336E-07 -0.000000000E+00  3.645363336E-07  0.000000000E+00  0.000000000E+00  0.000000000E+00 -6.320303214E-07  9.360156059E-01  1.215838827E-02 
         4  8.084700783E-16  9.102563858E-01  2.607601743E-07 -0.000000000E+00  2.607601743E-07  0.000000000E+00  0.000000000E+00  0.000000000E+00 -4.237186886E-07  9.104097486E-01  1.217584498E-02 
         5  7.856963269E-16  8.846154213E-01  1.960320617E-07 -0.000000000E+00  1.960320617E-07  0.000000000E+00  0.000000000E+00  0.000000000E+00 -3.181009447E-07  8.847913742E-01  1.220678724E-02 
         6  7.629224697E-16  8.589743376E-01  1.540641392E-07 -0.000000000E+00  1.540641534E-07  0.000000000E+00  0.000000000E+00  0.000000000E+00 -2.519767293E-07  8.591540456E-01  1.222963724E-02 
         7  7.401487184E-16  8.333333731E-01  1.258884481E-07  2.164934898E-15  1.258884481E-07  0.000000000E+00  0.000000000E+00  0.000000000E+00 -2.107140489E-07  8.335400820E-01  1.226854883E-02 
         8  7.173748612E-16  8.076922894E-01  1.074357385E-07 -0.000000000E+00  1.074357385E-07  0.000000000E+00  0.000000000E+00  0.000000000E+00 -1.822601661E-07  8.079108000E-01  1.228155475E-02 
         9  6.946011098E-16  7.820513248E-01  9.479643381E-08 -1.082467449E-15  9.479643381E-08  0.000000000E+00  0.000000000E+00  0.000000000E+00 -1.612184093E-07  7.822741866E-01  1.228952408E-02 
        10  6.718272526E-16  7.564102411E-01  8.603272761E-08 -0.000000000E+00  8.603272761E-08  0.000000000E+00  0.000000000E+00  0.000000000E+00 -1.443708300E-07  7.566472888E-01  1.231461950E-02 
        11  6.490535013E-16  7.307692766E-01  7.970441374E-08 -0.000000000E+00  7.970441374E-08  0.000000000E+00  0.000000000E+00  0.000000000E+00 -1.300625172E-07  7.310187221E-01  1.233126502E-02 
        12  6.262796441E-16  7.051281929E-01  7.493311216E-08 -0.000000000E+00  7.493311216E-08  0.000000000E+00  0.000000000E+00  0.000000000E+00 -1.172826316E-07  7.053800821E-01  1.234335452E-02 
        13  6.035058927E-16  6.794872284E-01  7.110610767E-08 -0.000000000E+00  7.110610767E-08  0.000000000E+00  0.000000000E+00  0.000000000E+00 -1.055174508E-07  6.797527075E-01  1.236444712E-02 
        14  5.807320355E-16  6.538461447E-01  6.783429995E-08 -0.000000000E+00  6.783429995E-08  0.000000000E+00  0.000000000E+00  0.000000000E+00 -9.442692317E-08  6.541167498E-01  1.237084065E-02 
        15  5.579582842E-16  6.282051802E-01  6.482072479E-08 -0.000000000E+00  6.482072479E-08  0.000000000E+00  0.000000000E+00  0.000000000E+00 -8.385093508E-08  6.284769773E-01  1.237528957E-02 
        16  5.351844270E-16  6.025640965E-01  6.189655011E-08 -0.000000000E+00  6.189655011E-08  0.000000000E+00  0.000000000E+00  0.000000000E+00 -7.373706978E-08  6.028419137E-01  1.238240674E-02 
        17  5.124106756E-16  5.769231319E-01  5.894848343E-08 -0.000000000E+00  5.894848343E-08  0.000000000E+00  0.000000000E+00  0.000000000E+00 -6.404913222E-08  5.772025585E-01  1.238395181E-02 
        18  4.896368184E-16  5.512820482E-01  5.588773888E-08 -0.000000000E+00  5.588773888E-08  0.000000000E+00  0.000000000E+00  0.000000000E+00 -5.480951870E-08  5.515624285E-01  1.238467637E-02 
        19  4.668630671E-16  5.256410837E-01  5.267012781E-08 -0.000000000E+00  5.267012781E-08  0.000000000E+00  0.000000000E+00  0.000000000E+00 -4.605805159E-08  5.259208679E-01  1.238879375E-02 
        20  4.440892099E-16  5.000000000E-01  4.928019948E-08  2.706168623E-16  4.928019948E-08  0.000000000E+00  0.000000000E+00  0.000000000E+00 -3.785101654E-08  5.002790093E-01  1.239034720E-02 
        21  4.213154056E-16  4.743589759E-01  4.572174817E-08 -0.000000000E+00  4.572174817E-08  0.000000000E+00  0.000000000E+00  0.000000000E+00 -3.024527828E-08  4.746357501E-01  1.239291858E-02 
        22  3.985416013E-16  4.487179518E-01  4.200947856E-08 -0.000000000E+00  4.200947856E-08  0.000000000E+00  0.000000000E+00  0.000000000E+00 -2.329305460E-08  4.489818513E-01  1.240013726E-02 
        23  3.757677970E-16  4.230769277E-01  3.818622929E-08 -0.000000000E+00  3.818622929E-08  0.000000000E+00  0.000000000E+00  0.000000000E+00 -1.705375929E-08  4.233300090E-01  1.239841525E-02 
        24  3.529939927E-16  3.974359035E-01  3.428383621E-08 -0.000000000E+00  3.428383621E-08  0.000000000E+00  0.000000000E+00  0.000000000E+00 -1.155707707E-08  3.976769447E-01  1.240408048E-02 
        25  3.302201885E-16  3.717948794E-01  3.036528895E-08 -0.000000000E+00  3.036528895E-08  0.000000000E+00  0.000000000E+00  0.000000000E+00 -6.840389144E-09  3.720420897E-01  1.239480730E-02 
        26  3.074463842E-16  3.461538553E-01  2.646336661E-08 -0.000000000E+00  2.646336661E-08  0.000000000E+00  0.000000000E+00  0.000000000E+00 -2.898641327E-09  3.464167118E-01  1.239781547E-02 
        27  2.846725799E-16  3.205128312E-01  2.264554944E-08 -0.000000000E+00  2.264554944E-08  0.000000000E+00  0.000000000E+00  0.000000000E+00  2.630065610E-10  3.207926452E-01  1.239026338E-02 
        28  2.618987756E-16  2.948718071E-01  1.895640800E-08 -0.000000000E+00  1.895640800E-08  0.000000000E+00  0.000000000E+00  0.000000000E+00  2.674347854E-09  2.951543927E-01  1.239590906E-02 
        29  2.391249714E-16  2.692307830E-01  1.545820538E-08 -0.000000000E+00  1.545820538E-08  0.000000000E+00  0.000000000E+00  0.000000000E+00  4.362697315E-09  2.694991231E-01  1.238984242E-02 
        30  2.163511671E-16  2.435897589E-01  1.224359902E-08 -0.000000000E+00  1.224359814E-08  0.000000000E+00  0.000000000E+00  0.000000000E+00  5.404980463E-09  2.438452244E-01  1.239247900E-02 
        31  1.935773496E-16  2.179487199E-01  9.217634656E-09 -0.000000000E+00  9.217634656E-09  0.000000000E+00  0.000000000E+00  0.000000000E+00  5.874167375E-09  2.181829363E-01  1.238078251E-02 
        32  1.708035453E-16  1.923076957E-01  6.602809410E-09 -0.000000000E+00  6.602809410E-09  0.000000000E+00  0.000000000E+00  0.000000000E+00  5.740422804E-09  1.925286651E-01  1.236873865E-02 
        33  1.480297410E-16  1.666666716E-01  4.334517190E-09 -0.000000000E+00  4.334517190E-09  0.000000000E+00  0.000000000E+00  0.000000000E+00  5.160691430E-09  1.668806225E-01  1.236310974E-02 
        34  1.252559368E-16  1.410256475E-01  2.513146802E-09 -0.000000000E+00  2.513146802E-09  0.000000000E+00  0.000000000E+00  0.000000000E+00  4.303708057E-09  1.411977708E-01  1.234778203E-02 
        35  1.024821325E-16  1.153846234E-01  1.122534510E-09  1.353084311E-16  1.122534510E-09  0.000000000E+00  0.000000000E+00  0.000000000E+00  3.230937962E-09  1.155181900E-01  1.232313178E-02 
        36  7.970832158E-17  8.974359185E-02  1.989295256E-10 -0.000000000E+00  1.989295256E-10  0.000000000E+00  0.000000000E+00  0.000000000E+00  2.155663203E-09  8.984853327E-02  1.231984887E-02 
        37  5.693451731E-17  6.410256773E-02 -2.969359758E-10 -0.000000000E+00  2.969359758E-10  0.000000000E+00  0.000000000E+00  0.000000000E+00  1.147263951E-09  6.415876746E-02  1.228223462E-02 
        38  3.416070972E-17  3.846153989E-02 -3.426907091E-10 -0.000000000E+00  3.426907091E-10  0.000000000E+00  0.000000000E+00  0.000000000E+00  3.522243608E-10  3.849475831E-02  1.225871034E-02 
        39  1.138690297E-17  1.282051299E-02 -4.444749083E-11 -0.000000000E+00  4.444749083E-11  0.000000000E+00  0.000000000E+00  0.000000000E+00  0.000000000E+00  1.284349989E-02  1.224574726E-02 
        40  1.222222205E-02  0.000000000E+00 -0.000000000E+00  2.591140497E-11  2.591140497E-11  0.000000000E+00  0.000000000E+00  0.000000000E+00  0.000000000E+00  1.284349989E-02  1.224574726E-02 
        41  3.666666523E-02  0.000000000E+00 -0.000000000E+00  3.331839249E-10  3.331839249E-10  0.000000000E+00  0.000000000E+00  0.000000000E+00 -2.918555397E-10  1.285373326E-02  3.670315444E-02 
        42  6.111110747E-02  0.000000000E+00 -0.000000000E+00  3.198746823E-10  3.198746545E-10  0.000000000E+00  0.000000000E+00  0.000000000E+00 -1.014473838E-09  1.287672110E-02  6.117112935E-02 
        43  8.555555344E-02  0.000000000E+00  3.548298109E-17 -5.312118107E-11  5.312117760E-11  0.000000000E+00  0.000000000E+00  0.000000000E+00 -1.917779269E-09  1.287855394E-02  8.564665914E-02 
        44  1.099999994E-01  0.000000000E+00 -0.000000000E+00 -7.428280213E-10  7.428280213E-10  0.000000000E+00  0.000000000E+00  0.000000000E+00 -2.934990251E-09  1.285370532E-02  1.101196334E-01 
        45  1.344444454E-01  0.000000000E+00  1.419319244E-16 -1.751533030E-09  1.751533030E-09  0.000000000E+00  0.000000000E+00  0.000000000E+00 -3.994457654E-09  1.284530479E-02  1.345822215E-01 
        46  1.588888764E-01  0.000000000E+00 -0.000000000E+00 -3.029761775E-09  3.029761775E-09  0.000000000E+00  0.000000000E+00  0.000000000E+00 -4.979506585E-09  1.278808434E-02  1.590282470E-01 
        47  1.833333373E-01  0.000000000E+00 -0.000000000E+00 -4.522333175E-09  4.522333175E-09  0.000000000E+00  0.000000000E+00  0.000000000E+00 -5.837740069E-09  1.276845206E-02  1.834624708E-01 
        48  2.077777684E-01  0.000000000E+00 -0.000000000E+00 -6.186670731E-09  6.186670731E-09  0.000000000E+00  0.000000000E+00  0.000000000E+00 -6.531027719E-09  1.273608115E-02  2.078799754E-01 
        49  2.322222292E-01  0.000000000E+00 -0.000000000E+00 -7.955029524E-09  7.955029524E-09  0.000000000E+00  0.000000000E+00  0.000000000E+00 -7.047733508E-09  1.269343123E-02  2.323081493E-01 
        50  2.566666603E-01  0.000000000E+00 -0.000000000E+00 -9.855532390E-09  9.855532390E-09  0.000000000E+00  0.000000000E+00  0.000000000E+00 -7.386542045E-09  1.266921498E-02  2.567616999E-01 
        51  2.811111212E-01  0.000000000E+00 -0.000000000E+00 -1.183209530E-08  1.183209530E-08  0.000000000E+00  0.000000000E+00  0.000000000E+00 -7.485942533E-09  1.264619734E-02  2.812000513E-01 
        52  3.055555522E-01  0.000000000E+00 -0.000000000E+00 -1.386491721E-08  1.386491721E-08  0.000000000E+00  0.000000000E+00  0.000000000E+00 -7.285166692E-09  1.260924153E-02  3.056490123E-01 
        53  3.299999833E-01  0.000000000E+00 -0.000000000E+00 -1.587084242E-08  1.587084242E-08  0.000000000E+00  0.000000000E+00  0.000000000E+00 -6.849500522E-09  1.259679347E-02  3.300969899E-01 
        54  3.544444442E-01  0.000000000E+00 -0.000000000E+00 -1.788056814E-08  1.788056814E-08  0.000000000E+00  0.000000000E+00  0.000000000E+00 -6.167342637E-09  1.258405391E-02  3.545368314E-01 
        55  3.788889050E-01  0.000000000E+00 -0.000000000E+00 -1.987041465E-08  1.987041465E-08  0.000000000E+00  0.000000000E+00  0.000000000E+00 -5.218042443E-09  1.253870502E-02  3.789897263E-01 
        56  4.033333361E-01  0.000000000E+00 -0.000000000E+00 -2.179344527E-08  2.179344527E-08  0.000000000E+00  0.000000000E+00  0.000000000E+00 -3.965481277E-09  1.249349210E-02  4.034643769E-01 
        57  4.277777672E-01  0.000000000E+00 -0.000000000E+00 -2.362436824E-08  2.362436824E-08  0.000000000E+00  0.000000000E+00  0.000000000E+00 -2.410161182E-09  1.246059220E-02  4.279136956E-01 
        58  4.522222281E-01  0.000000000E+00 -0.000000000E+00 -2.531414900E-08  2.531414900E-08  0.000000000E+00  0.000000000E+00  0.000000000E+00 -5.304711670E-10  1.241201907E-02  4.523873031E-01 
        59  4.766666889E-01  0.000000000E+00 -0.000000000E+00 -2.681771427E-08  2.681771427E-08  0.000000000E+00  0.000000000E+00  0.000000000E+00  1.660988569E-09  1.240862813E-02  4.768328369E-01 
        60  5.011110902E-01  0.000000000E+00 -0.000000000E+00 -2.809485444E-08  2.809485444E-08  0.000000000E+00  0.000000000E+00  0.000000000E+00  4.146667454E-09  1.240526699E-02  5.012761950E-01 
        61  5.255555511E-01  0.000000000E+00 -0.000000000E+00 -2.910076091E-08  2.910076091E-08  0.000000000E+00  0.000000000E+00  0.000000000E+00  6.907536765E-09  1.240019593E-02  5.257211924E-01 
        62  5.500000119E-01  0.000000000E+00 -0.000000000E+00 -2.979424885E-08  2.979424885E-08  0.000000000E+00  0.000000000E+00  0.000000000E+00  9.903962095E-09  1.239850093E-02  5.501661897E-01 
        63  5.744444132E-01  0.000000000E+00 -0.000000000E+00 -3.014053362E-08  3.014053362E-08  0.000000000E+00  0.000000000E+00  0.000000000E+00  1.309335840E-08  1.239682082E-02  5.746100545E-01 
        64  5.988888741E-01  0.000000000E+00 -0.000000000E+00 -3.008049632E-08  3.008049632E-08  0.000000000E+00  0.000000000E+00  0.000000000E+00  1.640645664E-08  1.239428483E-02  5.990547538E-01 
        65  6.233333349E-01  0.000000000E+00 -0.000000000E+00 -2.962018897E-08  2.962018897E-08  0.000000000E+00  0.000000000E+00  0.000000000E+00  1.976602526E-08  1.239343733E-02  6.234995127E-01 
        66  6.477777958E-01  0.000000000E+00 -7.096596219E-17 -2.873827576E-08  2.873827576E-08  0.000000000E+00  0.000000000E+00  0.000000000E+00  2.308443570E-08  1.239259727E-02  6.479436755E-01 
        67  6.722222567E-01  0.000000000E+00 -0.000000000E+00 -2.743695227E-08  2.743695404E-08  0.000000000E+00  0.000000000E+00  0.000000000E+00  2.626667595E-08  1.239132974E-02  6.723882556E-01 
        68  6.966666579E-01  0.000000000E+00  1.419319244E-16 -2.573899849E-08  2.573899671E-08  0.000000000E+00  0.000000000E+00  0.000000000E+00  2.921910891E-08  1.239090599E-02  6.968328357E-01 
        69  7.211111188E-01  0.000000000E+00 -0.000000000E+00 -2.367736762E-08  2.367736762E-08  0.000000000E+00  0.000000000E+00  0.000000000E+00  3.185018116E-08  1.239048503E-02  7.212771177E-01 
        70  7.455555201E-01  0.000000000E+00 -0.000000000E+00 -2.131178967E-08  2.131178967E-08  0.000000000E+00  0.000000000E+00  0.000000000E+00  3.406644566E-08  1.241100114E-02  7.457131743E-01 
        71  7.699999809E-01  0.000000000E+00  2.838638487E-16 -1.869826782E-08  1.869826782E-08  0.000000000E+00  0.000000000E+00  0.000000000E+00  3.580625574E-08  1.244388521E-02  7.701314688E-01 
        72  7.944444418E-01  0.000000000E+00 -0.000000000E+00 -1.597161514E-08  1.597161514E-08  0.000000000E+00  0.000000000E+00  0.000000000E+00  3.702111329E-08  1.246482506E-02  7.945673466E-01 
        73  8.188889027E-01  0.000000000E+00 -0.000000000E+00 -1.313698039E-08  1.313698039E-08  0.000000000E+00  0.000000000E+00  0.000000000E+00  3.773715918E-08  1.250436995E-02  8.189894557E-01 
        74  8.433333635E-01  0.000000000E+00 -0.000000000E+00 -1.037091302E-08  1.037091302E-08  0.000000000E+00  0.000000000E+00  0.000000000E+00  3.788646197E-08  1.250984892E-02  8.434336782E-01 
        75  8.677777648E-01  0.000000000E+00 -0.000000000E+00 -7.668900182E-09  7.668900182E-09  0.000000000E+00  0.000000000E+00  0.000000000E+00  3.744331067E-08  1.251650974E-02  8.678818941E-01 
        76  8.922222257E-01  0.000000000E+00 -1.419319244E-16 -5.302727146E-09  5.302727146E-09  0.000000000E+00  0.000000000E+00  0.000000000E+00  3.657421033E-08  1.251901407E-02  8.923249245E-01 
        77  9.166666865E-01  0.000000000E+00 -1.419319244E-16 -3.198283638E-09  3.198283638E-09  0.000000000E+00  0.000000000E+00  0.000000000E+00  3.536085202E-08  1.251618750E-02  9.167701006E-01 
        78  9.411110878E-01  0.000000000E+00 -0.000000000E+00 -1.519468995E-09  1.519468884E-09  0.000000000E+00  0.000000000E+00  0.000000000E+00  3.386641367E-08  1.251321100E-02  9.412133098E-01 
        79  9.655555487E-01  0.000000000E+00 -0.000000000E+00 -2.313093050E-10  2.313093050E-10  0.000000000E+00  0.000000000E+00  0.000000000E+00  3.235457413E-08  1.253751945E-02  9.656588435E-01 
        80  9.900000095E-01  0.000000000E+00 -0.000000000E+00  5.635776290E-10  5.635776290E-10  0.000000000E+00  0.000000000E+00  0.000000000E+00  3.067348686E-08  1.257127337E-02  9.900838733E-01 
        81  1.014444351E+00  0.000000000E+00 -8.870745273E-18  9.048972127E-10  9.048972127E-10  0.000000000E+00  0.000000000E+00  0.000000000E+00  2.934629073E-08  1.259840839E-02  1.014528632E+00 
        82  1.038888931E+00  0.000000000E+00 -0.000000000E+00  8.563240672E-10  8.563240117E-10  0.000000000E+00  0.000000000E+00  0.000000000E+00  2.815523459E-08  1.267363038E-02  1.038952589E+00 
        83  1.063333273E+00  0.000000000E+00 -0.000000000E+00  4.984723190E-10  4.984723190E-10  0.000000000E+00  0.000000000E+00  0.000000000E+00  2.756253714E-08  1.272633765E-02  1.063365817E+00 
        84  1.087777853E+00  0.000000000E+00 -0.000000000E+00  2.216522972E-11  2.216522972E-11  0.000000000E+00  0.000000000E+00  0.000000000E+00  2.726937964E-08  1.276780572E-02  1.087808967E+00 
        85  1.100000024E+00  1.282051299E-02  4.842507992E-11 -0.000000000E+00  4.842508339E-11  0.000000000E+00  0.000000000E+00  0.000000000E+00  2.726937964E-08  1.276780572E-02  1.087808967E+00 
        86  1.100000024E+00  3.846153989E-02  5.358291588E-10 -0.000000000E+00  5.358291588E-10  0.000000000E+00  0.000000000E+00  0.000000000E+00  2.693184342E-08  3.836736456E-02  1.087810159E+00 
        87  1.100000024E+00  6.410256773E-02  9.140648238E-10 -0.000000000E+00  9.140647683E-10  0.000000000E+00  0.000000000E+00  0.000000000E+00  2.623942841E-08  6.395578384E-02  1.087841392E+00 
        88  1.100000024E+00  8.974359185E-02  1.025158847E-09 -0.000000000E+00  1.025158847E-09  0.000000000E+00  0.000000000E+00  0.000000000E+00  2.492172335E-08  8.955289423E-02  1.087826252E+00 
        89  1.100000024E+00  1.153846234E-01  7.764724974E-10 -0.000000000E+00  7.764724974E-10  0.000000000E+00  0.000000000E+00  0.000000000E+00  2.333093541E-08  1.151780114E-01  1.087804198E+00 
        90  1.100000024E+00  1.410256475E-01  2.045973946E-10 -0.000000000E+00  2.045973946E-10  0.000000000E+00  0.000000000E+00  0.000000000E+00  2.131722177E-08  1.408166736E-01  1.087787867E+00 
        91  1.100000024E+00  1.666666716E-01 -7.869754293E-10  6.765421556E-17  7.869754293E-10  0.000000000E+00  0.000000000E+00  0.000000000E+00  1.913033820E-08  1.664341986E-01  1.087747574E+00 
        92  1.100000024E+00  1.923076957E-01 -2.101700147E-09 -0.000000000E+00  2.101700147E-09  0.000000000E+00  0.000000000E+00  0.000000000E+00  1.675663519E-08  1.920512319E-01  1.087719440E+00 
        93  1.100000024E+00  2.179487199E-01 -3.773503288E-09 -0.000000000E+00  3.773503288E-09  0.000000000E+00  0.000000000E+00  0.000000000E+00  1.415334783E-08  2.176846266E-01  1.087701082E+00 
        94  1.100000024E+00  2.435897589E-01 -5.848615814E-09 -0.000000000E+00  5.848615814E-09  0.000000000E+00  0.000000000E+00  0.000000000E+00  1.138072037E-08  2.433050722E-01  1.087665677E+00 
        95  1.100000024E+00  2.692307830E-01 -8.338417068E-09 -0.000000000E+00  8.338417068E-09  0.000000000E+00  0.000000000E+00  0.000000000E+00  8.425834253E-09  2.689446807E-01  1.087659121E+00 
        96  1.100000024E+00  2.948718071E-01 -1.130524208E-08 -0.000000000E+00  1.130524208E-08  0.000000000E+00  0.000000000E+00  0.000000000E+00  5.295655026E-09  2.945891023E-01  1.087651730E+00 
        97  1.100000024E+00  3.205128312E-01 -1.481725143E-08 -0.000000000E+00  1.481725143E-08  0.000000000E+00  0.000000000E+00  0.000000000E+00  2.002240373E-09  3.202283680E-01  1.087641597E+00 
        98  1.100000024E+00  3.461538553E-01 -1.896221491E-08 -0.000000000E+00  1.896221491E-08  0.000000000E+00  0.000000000E+00  0.000000000E+00 -1.432605368E-09  3.458661437E-01  1.087636828E+00 
        99  1.100000024E+00  3.717948794E-01 -2.383775133E-08 -0.000000000E+00  2.383775133E-08  0.000000000E+00  0.000000000E+00  0.000000000E+00 -4.955589272E-09  3.715068102E-01  1.087633252E+00 
