cellnumber     x-coordinate     y-coordinate     y-wall-shear     x-wall-shear       wall-shear velocity-magnitude       y-velocity       x-velocity         pressure     y-coordinate     x-coordinate 
         1  9.327022831E-16  9.871795177E-01  6.202927807E-07  3.463895837E-14  6.202927807E-07  0.000000000E+00  0.000000000E+00  0.000000000E+00 -1.020026161E-06  9.872229099E-01  1.219300274E-02 
         2  8.540176868E-16  9.615384340E-01  2.504902739E-07 -0.000000000E+00  2.504902739E-07  0.000000000E+00  0.000000000E+00  0.000000000E+00 -5.833219916E-07  9.616132975E-01  1.218760852E-02 
         3  8.312439355E-16  9.358974695E-01  1.952177229E-07 -0.000000000E+00  1.952177229E-07  0.000000000E+00  0.000000000E+00  0.000000000E+00 -3.383276237E-07  9.360156059E-01  1.215838827E-02 
         4  8.084700783E-16  9.102563858E-01  1.457595005E-07 -0.000000000E+00  1.457595005E-07  0.000000000E+00  0.000000000E+00  0.000000000E+00 -2.265763612E-07  9.104097486E-01  1.217584498E-02 
         5  7.856963269E-16  8.846154213E-01  1.131475855E-07 -0.000000000E+00  1.131475855E-07  0.000000000E+00  0.000000000E+00  0.000000000E+00 -1.680757435E-07  8.847913742E-01  1.220678724E-02 
         6  7.629224697E-16  8.589743376E-01  9.098091880E-08 -0.000000000E+00  9.098091880E-08  0.000000000E+00  0.000000000E+00  0.000000000E+00 -1.293472280E-07  8.591540456E-01  1.222963724E-02 
         7  7.401487184E-16  8.333333731E-01  7.519912515E-08 -0.000000000E+00  7.519912515E-08  0.000000000E+00  0.000000000E+00  0.000000000E+00 -1.042872029E-07  8.335400820E-01  1.226854883E-02 
         8  7.173748612E-16  8.076922894E-01  6.421262100E-08 -0.000000000E+00  6.421262100E-08  0.000000000E+00  0.000000000E+00  0.000000000E+00 -8.653722716E-08  8.079108000E-01  1.228155475E-02 
         9  6.946011098E-16  7.820513248E-01  5.605370390E-08 -0.000000000E+00  5.605370390E-08  0.000000000E+00  0.000000000E+00  0.000000000E+00 -7.334632102E-08  7.822741866E-01  1.228952408E-02 
        10  6.718272526E-16  7.564102411E-01  4.989086477E-08 -0.000000000E+00  4.989086477E-08  0.000000000E+00  0.000000000E+00  0.000000000E+00 -6.296490795E-08  7.566472888E-01  1.231461950E-02 
        11  6.490535013E-16  7.307692766E-01  4.504815010E-08 -0.000000000E+00  4.504815010E-08  0.000000000E+00  0.000000000E+00  0.000000000E+00 -5.446680618E-08  7.310187221E-01  1.233126502E-02 
        12  6.262796441E-16  7.051281929E-01  4.112727581E-08 -0.000000000E+00  4.112727581E-08  0.000000000E+00  0.000000000E+00  0.000000000E+00 -4.725106706E-08  7.053800821E-01  1.234335452E-02 
        13  6.035058927E-16  6.794872284E-01  3.783337732E-08 -0.000000000E+00  3.783337732E-08  0.000000000E+00  0.000000000E+00  0.000000000E+00 -4.097886119E-08  6.797527075E-01  1.236444712E-02 
        14  5.807320355E-16  6.538461447E-01  3.498034573E-08 -0.000000000E+00  3.498034573E-08  0.000000000E+00  0.000000000E+00  0.000000000E+00 -3.540579030E-08  6.541167498E-01  1.237084065E-02 
        15  5.579582842E-16  6.282051802E-01  3.242528024E-08 -0.000000000E+00  3.242528024E-08  0.000000000E+00  0.000000000E+00  0.000000000E+00 -3.039345842E-08  6.284769773E-01  1.237528957E-02 
        16  5.351844270E-16  6.025640965E-01  3.007700045E-08  1.353084311E-16  3.007700045E-08  0.000000000E+00  0.000000000E+00  0.000000000E+00 -2.585319869E-08  6.028419137E-01  1.238240674E-02 
        17  5.124106756E-16  5.769231319E-01  2.787203357E-08 -0.000000000E+00  2.787203357E-08  0.000000000E+00  0.000000000E+00  0.000000000E+00 -2.172220093E-08  5.772025585E-01  1.238395181E-02 
        18  4.896368184E-16  5.512820482E-01  2.576555147E-08 -0.000000000E+00  2.576555325E-08  0.000000000E+00  0.000000000E+00  0.000000000E+00 -1.796560056E-08  5.515624285E-01  1.238467637E-02 
        19  4.668630671E-16  5.256410837E-01  2.372903474E-08 -1.353084311E-16  2.372903474E-08  0.000000000E+00  0.000000000E+00  0.000000000E+00 -1.455975340E-08  5.259208679E-01  1.238879375E-02 
        20  4.440892099E-16  5.000000000E-01  2.174636293E-08 -0.000000000E+00  2.174636293E-08  0.000000000E+00  0.000000000E+00  0.000000000E+00 -1.149050455E-08  5.002790093E-01  1.239034720E-02 
        21  4.213154056E-16  4.743589759E-01  1.980935060E-08 -0.000000000E+00  1.980935060E-08  0.000000000E+00  0.000000000E+00  0.000000000E+00 -8.747071512E-09  4.746357501E-01  1.239291858E-02 
        22  3.985416013E-16  4.487179518E-01  1.791256210E-08 -0.000000000E+00  1.791256210E-08  0.000000000E+00  0.000000000E+00  0.000000000E+00 -6.320054258E-09  4.489818513E-01  1.240013726E-02 
        23  3.757677970E-16  4.230769277E-01  1.606216138E-08 -0.000000000E+00  1.606216138E-08  0.000000000E+00  0.000000000E+00  0.000000000E+00 -4.207076021E-09  4.233300090E-01  1.239841525E-02 
        24  3.529939927E-16  3.974359035E-01  1.425793972E-08 -0.000000000E+00  1.425793972E-08  0.000000000E+00  0.000000000E+00  0.000000000E+00 -2.396279619E-09  3.976769447E-01  1.240408048E-02 
        25  3.302201885E-16  3.717948794E-01  1.251367898E-08 -0.000000000E+00  1.251367898E-08  0.000000000E+00  0.000000000E+00  0.000000000E+00 -8.860631673E-10  3.720420897E-01  1.239480730E-02 
        26  3.074463842E-16  3.461538553E-01  1.083201351E-08 -0.000000000E+00  1.083201351E-08  0.000000000E+00  0.000000000E+00  0.000000000E+00  3.429887485E-10  3.464167118E-01  1.239781547E-02 
        27  2.846725799E-16  3.205128312E-01  9.227401954E-09 -0.000000000E+00  9.227401954E-09  0.000000000E+00  0.000000000E+00  0.000000000E+00  1.295113350E-09  3.207926452E-01  1.239026338E-02 
        28  2.618987756E-16  2.948718071E-01  7.703892635E-09 -0.000000000E+00  7.703892635E-09  0.000000000E+00  0.000000000E+00  0.000000000E+00  1.994492571E-09  2.951543927E-01  1.239590906E-02 
        29  2.391249714E-16  2.692307830E-01  6.298650490E-09 -0.000000000E+00  6.298650934E-09  0.000000000E+00  0.000000000E+00  0.000000000E+00  2.453705905E-09  2.694991231E-01  1.238984242E-02 
        30  2.163511671E-16  2.435897589E-01  4.963144118E-09 -0.000000000E+00  4.963144118E-09  0.000000000E+00  0.000000000E+00  0.000000000E+00  2.711930458E-09  2.438452244E-01  1.239247900E-02 
        31  1.935773496E-16  2.179487199E-01  3.775826318E-09 -0.000000000E+00  3.775826318E-09  0.000000000E+00  0.000000000E+00  0.000000000E+00  2.746468830E-09  2.181829363E-01  1.238078251E-02 
        32  1.708035453E-16  1.923076957E-01  2.692211787E-09 -0.000000000E+00  2.692211787E-09  0.000000000E+00  0.000000000E+00  0.000000000E+00  2.572094315E-09  1.925286651E-01  1.236873865E-02 
        33  1.480297410E-16  1.666666716E-01  1.800720462E-09 -0.000000000E+00  1.800720462E-09  0.000000000E+00  0.000000000E+00  0.000000000E+00  2.274692656E-09  1.668806225E-01  1.236310974E-02 
        34  1.252559368E-16  1.410256475E-01  1.045237230E-09 -0.000000000E+00  1.045237230E-09  0.000000000E+00  0.000000000E+00  0.000000000E+00  1.873823097E-09  1.411977708E-01  1.234778203E-02 
        35  1.024821325E-16  1.153846234E-01  4.730723591E-10 -0.000000000E+00  4.730723591E-10  0.000000000E+00  0.000000000E+00  0.000000000E+00  1.399432015E-09  1.155181900E-01  1.232313178E-02 
        36  7.970832158E-17  8.974359185E-02  8.542098973E-11 -0.000000000E+00  8.542098973E-11  0.000000000E+00  0.000000000E+00  0.000000000E+00  9.316858396E-10  8.984853327E-02  1.231984887E-02 
        37  5.693451731E-17  6.410256773E-02 -1.251279497E-10 -0.000000000E+00  1.251279497E-10  0.000000000E+00  0.000000000E+00  0.000000000E+00  4.948841892E-10  6.415876746E-02  1.228223462E-02 
        38  3.416070972E-17  3.846153989E-02 -1.465471355E-10 -0.000000000E+00  1.465471217E-10  0.000000000E+00  0.000000000E+00  0.000000000E+00  1.524607246E-10  3.849475831E-02  1.225871034E-02 
        39  1.138690297E-17  1.282051299E-02 -1.921555623E-11 -0.000000000E+00  1.921555623E-11  0.000000000E+00  0.000000000E+00  0.000000000E+00  0.000000000E+00  1.284349989E-02  1.224574726E-02 
        40  1.222222205E-02  0.000000000E+00 -0.000000000E+00  1.150892923E-11  1.150892923E-11  0.000000000E+00  0.000000000E+00  0.000000000E+00  0.000000000E+00  1.284349989E-02  1.224574726E-02 
        41  3.666666523E-02  0.000000000E+00 -0.000000000E+00  1.419169227E-10  1.419169227E-10  0.000000000E+00  0.000000000E+00  0.000000000E+00 -1.282620538E-10  1.285373326E-02  3.670315444E-02 
        42  6.111110747E-02  0.000000000E+00 -0.000000000E+00  1.318744003E-10  1.318744003E-10  0.000000000E+00  0.000000000E+00  0.000000000E+00 -4.379555607E-10  1.287672110E-02  6.117112935E-02 
        43  8.555555344E-02  0.000000000E+00 -1.774149055E-17 -3.943804658E-11  3.943804658E-11  0.000000000E+00  0.000000000E+00  0.000000000E+00 -8.283791431E-10  1.287855394E-02  8.564665914E-02 
        44  1.099999994E-01  0.000000000E+00 -0.000000000E+00 -3.551814121E-10  3.551814121E-10  0.000000000E+00  0.000000000E+00  0.000000000E+00 -1.256458826E-09  1.285370532E-02  1.101196334E-01 
        45  1.344444454E-01  0.000000000E+00 -0.000000000E+00 -8.168212218E-10  8.168212218E-10  0.000000000E+00  0.000000000E+00  0.000000000E+00 -1.698080010E-09  1.284530479E-02  1.345822215E-01 
        46  1.588888764E-01  0.000000000E+00 -0.000000000E+00 -1.404894423E-09  1.404894423E-09  0.000000000E+00  0.000000000E+00  0.000000000E+00 -2.090143170E-09  1.278808434E-02  1.590282470E-01 
        47  1.833333373E-01  0.000000000E+00 -0.000000000E+00 -2.093435425E-09  2.093435425E-09  0.000000000E+00  0.000000000E+00  0.000000000E+00 -2.410992961E-09  1.276845206E-02  1.834624708E-01 
        48  2.077777684E-01  0.000000000E+00 -0.000000000E+00 -2.839908975E-09  2.839908975E-09  0.000000000E+00  0.000000000E+00  0.000000000E+00 -2.640350827E-09  1.273608115E-02  2.078799754E-01 
        49  2.322222292E-01  0.000000000E+00 -0.000000000E+00 -3.676452920E-09  3.676452920E-09  0.000000000E+00  0.000000000E+00  0.000000000E+00 -2.784467101E-09  1.269343123E-02  2.323081493E-01 
        50  2.566666603E-01  0.000000000E+00 -0.000000000E+00 -4.530775310E-09  4.530775310E-09  0.000000000E+00  0.000000000E+00  0.000000000E+00 -2.787685194E-09  1.266921498E-02  2.567616999E-01 
        51  2.811111212E-01  0.000000000E+00 -0.000000000E+00 -5.422688520E-09  5.422688520E-09  0.000000000E+00  0.000000000E+00  0.000000000E+00 -2.645812680E-09  1.264619734E-02  2.812000513E-01 
        52  3.055555522E-01  0.000000000E+00 -0.000000000E+00 -6.279574638E-09  6.279574638E-09  0.000000000E+00  0.000000000E+00  0.000000000E+00 -2.399605847E-09  1.260924153E-02  3.056490123E-01 
        53  3.299999833E-01  0.000000000E+00 -0.000000000E+00 -7.143592828E-09  7.143592828E-09  0.000000000E+00  0.000000000E+00  0.000000000E+00 -2.034466373E-09  1.259679347E-02  3.300969899E-01 
        54  3.544444442E-01  0.000000000E+00 -0.000000000E+00 -7.979075178E-09  7.979075178E-09  0.000000000E+00  0.000000000E+00  0.000000000E+00 -1.550039097E-09  1.258405391E-02  3.545368314E-01 
        55  3.788889050E-01  0.000000000E+00 -0.000000000E+00 -8.778150651E-09  8.778150651E-09  0.000000000E+00  0.000000000E+00  0.000000000E+00 -9.482062913E-10  1.253870502E-02  3.789897263E-01 
        56  4.033333361E-01  0.000000000E+00 -0.000000000E+00 -9.525600753E-09  9.525600753E-09  0.000000000E+00  0.000000000E+00  0.000000000E+00 -2.259795268E-10  1.249349210E-02  4.034643769E-01 
        57  4.277777672E-01  0.000000000E+00 -0.000000000E+00 -1.021203211E-08  1.021203211E-08  0.000000000E+00  0.000000000E+00  0.000000000E+00  6.056357083E-10  1.246059220E-02  4.279136956E-01 
        58  4.522222281E-01  0.000000000E+00 -0.000000000E+00 -1.082272494E-08  1.082272494E-08  0.000000000E+00  0.000000000E+00  0.000000000E+00  1.548530082E-09  1.241201907E-02  4.523873031E-01 
        59  4.766666889E-01  0.000000000E+00 -0.000000000E+00 -1.134346928E-08  1.134346928E-08  0.000000000E+00  0.000000000E+00  0.000000000E+00  2.588732118E-09  1.240862813E-02  4.768328369E-01 
        60  5.011110902E-01  0.000000000E+00 -0.000000000E+00 -1.176483444E-08  1.176483533E-08  0.000000000E+00  0.000000000E+00  0.000000000E+00  3.714819785E-09  1.240526699E-02  5.012761950E-01 
        61  5.255555511E-01  0.000000000E+00 -0.000000000E+00 -1.207597933E-08  1.207597933E-08  0.000000000E+00  0.000000000E+00  0.000000000E+00  4.914810781E-09  1.240019593E-02  5.257211924E-01 
        62  5.500000119E-01  0.000000000E+00 -8.870745273E-18 -1.226688529E-08  1.226688529E-08  0.000000000E+00  0.000000000E+00  0.000000000E+00  6.173592748E-09  1.239850093E-02  5.501661897E-01 
        63  5.744444132E-01  0.000000000E+00 -2.772107898E-19 -1.233084213E-08  1.233084213E-08  0.000000000E+00  0.000000000E+00  0.000000000E+00  7.473242469E-09  1.239682082E-02  5.746100545E-01 
        64  5.988888741E-01  0.000000000E+00 -0.000000000E+00 -1.225290269E-08  1.225290180E-08  0.000000000E+00  0.000000000E+00  0.000000000E+00  8.789340811E-09  1.239428483E-02  5.990547538E-01 
        65  6.233333349E-01  0.000000000E+00  1.774149055E-17 -1.203999833E-08  1.203999833E-08  0.000000000E+00  0.000000000E+00  0.000000000E+00  1.010214667E-08  1.239343733E-02  6.234995127E-01 
        66  6.477777958E-01  0.000000000E+00 -0.000000000E+00 -1.168486108E-08  1.168486108E-08  0.000000000E+00  0.000000000E+00  0.000000000E+00  1.138510708E-08  1.239259727E-02  6.479436755E-01 
        67  6.722222567E-01  0.000000000E+00 -0.000000000E+00 -1.119150816E-08  1.119150816E-08  0.000000000E+00  0.000000000E+00  0.000000000E+00  1.261196658E-08  1.239132974E-02  6.723882556E-01 
        68  6.966666579E-01  0.000000000E+00 -0.000000000E+00 -1.056638688E-08  1.056638599E-08  0.000000000E+00  0.000000000E+00  0.000000000E+00  1.375651593E-08  1.239090599E-02  6.968328357E-01 
        69  7.211111188E-01  0.000000000E+00 -0.000000000E+00 -9.819246749E-09  9.819246749E-09  0.000000000E+00  0.000000000E+00  0.000000000E+00  1.479346512E-08  1.239048503E-02  7.212771177E-01 
        70  7.455555201E-01  0.000000000E+00 -0.000000000E+00 -8.965755249E-09  8.965755249E-09  0.000000000E+00  0.000000000E+00  0.000000000E+00  1.569647523E-08  1.241100114E-02  7.457131743E-01 
        71  7.699999809E-01  0.000000000E+00 -0.000000000E+00 -8.023222087E-09  8.023222087E-09  0.000000000E+00  0.000000000E+00  0.000000000E+00  1.644422198E-08  1.244388521E-02  7.701314688E-01 
        72  7.944444418E-01  0.000000000E+00 -0.000000000E+00 -7.017403991E-09  7.017403547E-09  0.000000000E+00  0.000000000E+00  0.000000000E+00  1.702408525E-08  1.246482506E-02  7.945673466E-01 
        73  8.188889027E-01  0.000000000E+00 -0.000000000E+00 -5.988010532E-09  5.988010532E-09  0.000000000E+00  0.000000000E+00  0.000000000E+00  1.742712996E-08  1.250436995E-02  8.189894557E-01 
        74  8.433333635E-01  0.000000000E+00 -0.000000000E+00 -4.923681018E-09  4.923681018E-09  0.000000000E+00  0.000000000E+00  0.000000000E+00  1.766537672E-08  1.250984892E-02  8.434336782E-01 
        75  8.677777648E-01  0.000000000E+00 -0.000000000E+00 -3.898548151E-09  3.898548151E-09  0.000000000E+00  0.000000000E+00  0.000000000E+00  1.770695413E-08  1.251650974E-02  8.678818941E-01 
        76  8.922222257E-01  0.000000000E+00 -0.000000000E+00 -2.900671703E-09  2.900671703E-09  0.000000000E+00  0.000000000E+00  0.000000000E+00  1.754785117E-08  1.251901407E-02  8.923249245E-01 
        77  9.166666865E-01  0.000000000E+00 -0.000000000E+00 -2.029401980E-09  2.029401980E-09  0.000000000E+00  0.000000000E+00  0.000000000E+00  1.725123333E-08  1.251618750E-02  9.167701006E-01 
        78  9.411110878E-01  0.000000000E+00 -0.000000000E+00 -1.252190462E-09  1.252190462E-09  0.000000000E+00  0.000000000E+00  0.000000000E+00  1.683775075E-08  1.251321100E-02  9.412133098E-01 
        79  9.655555487E-01  0.000000000E+00 -0.000000000E+00 -6.301107969E-10  6.301108524E-10  0.000000000E+00  0.000000000E+00  0.000000000E+00  1.633033087E-08  1.253751945E-02  9.656588435E-01 
        80  9.900000095E-01  0.000000000E+00 -0.000000000E+00 -1.649456821E-10  1.649456821E-10  0.000000000E+00  0.000000000E+00  0.000000000E+00  1.580970199E-08  1.257127337E-02  9.900838733E-01 
        81  1.014444351E+00  0.000000000E+00 -0.000000000E+00  1.180414239E-10  1.180414239E-10  0.000000000E+00  0.000000000E+00  0.000000000E+00  1.527212667E-08  1.259840839E-02  1.014528632E+00 
        82  1.038888931E+00  0.000000000E+00 -0.000000000E+00  2.233008500E-10  2.233008639E-10  0.000000000E+00  0.000000000E+00  0.000000000E+00  1.484062384E-08  1.267363038E-02  1.038952589E+00 
        83  1.063333273E+00  0.000000000E+00 -0.000000000E+00  1.759028478E-10  1.759028478E-10  0.000000000E+00  0.000000000E+00  0.000000000E+00  1.452651155E-08  1.272633765E-02  1.063365817E+00 
        84  1.087777853E+00  0.000000000E+00 -0.000000000E+00  1.146053911E-11  1.146053911E-11  0.000000000E+00  0.000000000E+00  0.000000000E+00  1.439353525E-08  1.276780572E-02  1.087808967E+00 
        85  1.100000024E+00  1.282051299E-02  1.970260760E-11 -0.000000000E+00  1.970260760E-11  0.000000000E+00  0.000000000E+00  0.000000000E+00  1.439353525E-08  1.276780572E-02  1.087808967E+00 
        86  1.100000024E+00  3.846153989E-02  1.862139748E-10 -0.000000000E+00  1.862139748E-10  0.000000000E+00  0.000000000E+00  0.000000000E+00  1.424184148E-08  3.836736456E-02  1.087810159E+00 
        87  1.100000024E+00  6.410256773E-02  2.336099925E-10 -0.000000000E+00  2.336099925E-10  0.000000000E+00  0.000000000E+00  0.000000000E+00  1.388781889E-08  6.395578384E-02  1.087841392E+00 
        88  1.100000024E+00  8.974359185E-02  1.212313860E-10 -0.000000000E+00  1.212313860E-10  0.000000000E+00  0.000000000E+00  0.000000000E+00  1.339968847E-08  8.955289423E-02  1.087826252E+00 
        89  1.100000024E+00  1.153846234E-01 -1.680560968E-10 -0.000000000E+00  1.680560968E-10  0.000000000E+00  0.000000000E+00  0.000000000E+00  1.278385930E-08  1.151780114E-01  1.087804198E+00 
        90  1.100000024E+00  1.410256475E-01 -6.316003276E-10 -3.382710778E-17  6.316003276E-10  0.000000000E+00  0.000000000E+00  0.000000000E+00  1.215625467E-08  1.408166736E-01  1.087787867E+00 
        91  1.100000024E+00  1.666666716E-01 -1.248531056E-09 -0.000000000E+00  1.248531056E-09  0.000000000E+00  0.000000000E+00  0.000000000E+00  1.149013684E-08  1.664341986E-01  1.087747574E+00 
        92  1.100000024E+00  1.923076957E-01 -2.030403401E-09 -0.000000000E+00  2.030403401E-09  0.000000000E+00  0.000000000E+00  0.000000000E+00  1.084584511E-08  1.920512319E-01  1.087719440E+00 
        93  1.100000024E+00  2.179487199E-01 -2.955716560E-09  6.765421556E-17  2.955716560E-09  0.000000000E+00  0.000000000E+00  0.000000000E+00  1.023580953E-08  2.176846266E-01  1.087701082E+00 
        94  1.100000024E+00  2.435897589E-01 -4.030496825E-09 -0.000000000E+00  4.030496825E-09  0.000000000E+00  0.000000000E+00  0.000000000E+00  9.672751489E-09  2.433050722E-01  1.087665677E+00 
        95  1.100000024E+00  2.692307830E-01 -5.255761160E-09 -6.765421556E-17  5.255761160E-09  0.000000000E+00  0.000000000E+00  0.000000000E+00  9.166430281E-09  2.689446807E-01  1.087659121E+00 
        96  1.100000024E+00  2.948718071E-01 -6.640602290E-09 -0.000000000E+00  6.640601846E-09  0.000000000E+00  0.000000000E+00  0.000000000E+00  8.730657086E-09  2.945891023E-01  1.087651730E+00 
        97  1.100000024E+00  3.205128312E-01 -8.194545487E-09 -0.000000000E+00  8.194545487E-09  0.000000000E+00  0.000000000E+00  0.000000000E+00  8.373252314E-09  3.202283680E-01  1.087641597E+00 
        98  1.100000024E+00  3.461538553E-01 -9.918081467E-09  1.353084311E-16  9.918081467E-09  0.000000000E+00  0.000000000E+00  0.000000000E+00  8.091632253E-09  3.458661437E-01  1.087636828E+00 
        99  1.100000024E+00  3.717948794E-01 -1.190496590E-08 -1.353084311E-16  1.190496590E-08  0.000000000E+00  0.000000000E+00  0.000000000E+00  7.893635079E-09  3.715068102E-01  1.087633252E+00 
