cellnumber     x-coordinate     y-coordinate     y-wall-shear     x-wall-shear       wall-shear velocity-magnitude       y-velocity       x-velocity         pressure     y-coordinate     x-coordinate 
         1  9.317533944E-16  9.861111045E-01  4.874731303E-07 -0.000000000E+00  4.874731303E-07  0.000000000E+00  0.000000000E+00  0.000000000E+00 -7.968070008E-07  9.861333370E-01  1.354842074E-02 
         2  8.511709679E-16  9.583333135E-01  1.971520192E-07 -0.000000000E+00  1.971520192E-07  0.000000000E+00  0.000000000E+00  0.000000000E+00 -4.584038322E-07  9.583886266E-01  1.357317064E-02 
         3  8.264993863E-16  9.305555820E-01  1.554977445E-07 -0.000000000E+00  1.554977445E-07  0.000000000E+00  0.000000000E+00  0.000000000E+00 -2.640329910E-07  9.306330681E-01  1.357992459E-02 
         4  8.018277518E-16  9.027777910E-01  1.163720142E-07 -0.000000000E+00  1.163720142E-07  0.000000000E+00  0.000000000E+00  0.000000000E+00 -1.756583998E-07  9.028995037E-01  1.360805519E-02 
         5  7.771561172E-16  8.750000000E-01  9.107382937E-08 -0.000000000E+00  9.107382937E-08  0.000000000E+00  0.000000000E+00  0.000000000E+00 -1.288468212E-07  8.751382828E-01  1.362042781E-02 
         6  7.524844827E-16  8.472222090E-01  7.341558472E-08 -0.000000000E+00  7.341558472E-08  0.000000000E+00  0.000000000E+00  0.000000000E+00 -9.753594554E-08  8.473715782E-01  1.362380758E-02 
         7  7.278128482E-16  8.194444180E-01  6.067093494E-08 -0.000000000E+00  6.067093494E-08  0.000000000E+00  0.000000000E+00  0.000000000E+00 -7.704132798E-08  8.196159005E-01  1.363787241E-02 
         8  7.031412666E-16  7.916666865E-01  5.167700934E-08 -0.000000000E+00  5.167700934E-08  0.000000000E+00  0.000000000E+00  0.000000000E+00 -6.250201778E-08  7.918463945E-01  1.364406012E-02 
         9  6.784696320E-16  7.638888955E-01  4.492081729E-08 -0.000000000E+00  4.492082084E-08  0.000000000E+00  0.000000000E+00  0.000000000E+00 -5.172037376E-08  7.640741467E-01  1.364575140E-02 
        10  6.537979975E-16  7.361111045E-01  3.975036833E-08 -0.000000000E+00  3.975036478E-08  0.000000000E+00  0.000000000E+00  0.000000000E+00 -4.326071945E-08  7.363074422E-01  1.365278568E-02 
        11  6.291263630E-16  7.083333135E-01  3.562495721E-08 -0.000000000E+00  3.562496076E-08  0.000000000E+00  0.000000000E+00  0.000000000E+00 -3.638738377E-08  7.085338235E-01  1.365588047E-02 
        12  6.044547814E-16  6.805555820E-01  3.223858158E-08 -0.000000000E+00  3.223858158E-08  0.000000000E+00  0.000000000E+00  0.000000000E+00 -3.062033826E-08  6.807587743E-01  1.365672797E-02 
        13  5.797831468E-16  6.527777910E-01  2.935995980E-08 -0.000000000E+00  2.935995980E-08  0.000000000E+00  0.000000000E+00  0.000000000E+00 -2.567281854E-08  6.529865265E-01  1.366024558E-02 
        14  5.551115123E-16  6.250000000E-01  2.684150324E-08  2.498001805E-16  2.684150324E-08  0.000000000E+00  0.000000000E+00  0.000000000E+00 -2.135184296E-08  6.252108216E-01  1.366179343E-02 
        15  5.304398778E-16  5.972222090E-01  2.457519344E-08 -0.000000000E+00  2.457519344E-08  0.000000000E+00  0.000000000E+00  0.000000000E+00 -1.753929624E-08  5.974344611E-01  1.366221812E-02 
        16  5.057682432E-16  5.694444180E-01  2.248804520E-08 -0.000000000E+00  2.248804520E-08  0.000000000E+00  0.000000000E+00  0.000000000E+00 -1.415542350E-08  5.696594119E-01  1.366397832E-02 
        17  4.810966617E-16  5.416666865E-01  2.052898118E-08 -0.000000000E+00  2.052898118E-08  0.000000000E+00  0.000000000E+00  0.000000000E+00 -1.114816151E-08  5.418826938E-01  1.366475224E-02 
        18  4.564250271E-16  5.138888955E-01  1.866412092E-08 -0.000000000E+00  1.866411914E-08  0.000000000E+00  0.000000000E+00  0.000000000E+00 -8.483657332E-09  5.141056180E-01  1.366496459E-02 
        19  4.317533926E-16  4.861111045E-01  1.687113382E-08 -0.000000000E+00  1.687113382E-08  0.000000000E+00  0.000000000E+00  0.000000000E+00 -6.139179387E-09  4.863291979E-01  1.366584562E-02 
        20  4.070817580E-16  4.583333135E-01  1.513740777E-08 -0.000000000E+00  1.513740777E-08  0.000000000E+00  0.000000000E+00  0.000000000E+00 -4.098751560E-09  4.585519433E-01  1.366623305E-02 
        21  3.824101500E-16  4.305555522E-01  1.345714296E-08  1.249000903E-16  1.345714296E-08  0.000000000E+00  0.000000000E+00  0.000000000E+00 -2.350786676E-09  4.307745099E-01  1.366633922E-02 
        22  3.577385419E-16  4.027777910E-01  1.183031539E-08 -0.000000000E+00  1.183031539E-08  0.000000000E+00  0.000000000E+00  0.000000000E+00 -8.853071609E-10  4.029974341E-01  1.366677973E-02 
        23  3.330669074E-16  3.750000000E-01  1.025997420E-08 -0.000000000E+00  1.025997420E-08  0.000000000E+00  0.000000000E+00  0.000000000E+00  3.079475563E-10  3.752199113E-01  1.366697345E-02 
        24  3.083952729E-16  3.472222090E-01  8.754332370E-09 -0.000000000E+00  8.754332370E-09  0.000000000E+00  0.000000000E+00  0.000000000E+00  1.237239533E-09  3.474422991E-01  1.366702747E-02 
        25  2.837236648E-16  3.194444478E-01  7.319953976E-09 -0.000000000E+00  7.319953976E-09  0.000000000E+00  0.000000000E+00  0.000000000E+00  1.918321724E-09  3.196648657E-01  1.366724726E-02 
        26  2.590520567E-16  2.916666865E-01  5.988586071E-09 -0.000000000E+00  5.988586071E-09  0.000000000E+00  0.000000000E+00  0.000000000E+00  2.368799157E-09  2.918872237E-01  1.366734412E-02 
        27  2.343804222E-16  2.638888955E-01  4.720517754E-09 -0.000000000E+00  4.720518199E-09  0.000000000E+00  0.000000000E+00  0.000000000E+00  2.620651474E-09  2.641095221E-01  1.366737112E-02 
        28  2.097087877E-16  2.361111045E-01  3.586854591E-09 -0.000000000E+00  3.586854369E-09  0.000000000E+00  0.000000000E+00  0.000000000E+00  2.658563591E-09  2.362993211E-01  1.367031969E-02 
        29  1.850371796E-16  2.083333433E-01  2.549830791E-09  6.245004514E-17  2.549830791E-09  0.000000000E+00  0.000000000E+00  0.000000000E+00  2.489826123E-09  2.084827274E-01  1.364990510E-02 
        30  1.603655451E-16  1.805555522E-01  1.695637852E-09 -0.000000000E+00  1.695637852E-09  0.000000000E+00  0.000000000E+00  0.000000000E+00  2.199592508E-09  1.806723326E-01  1.365275774E-02 
        31  1.356939370E-16  1.527777910E-01  9.731010442E-10 -0.000000000E+00  9.731010442E-10  0.000000000E+00  0.000000000E+00  0.000000000E+00  1.805438909E-09  1.528561264E-01  1.362435985E-02 
        32  1.110223025E-16  1.250000000E-01  4.298325862E-10 -0.000000000E+00  4.298325862E-10  0.000000000E+00  0.000000000E+00  0.000000000E+00  1.344205081E-09  1.250726730E-01  1.361466106E-02 
        33  8.635068116E-17  9.722222388E-02  6.495627647E-11 -0.000000000E+00  6.495627647E-11  0.000000000E+00  0.000000000E+00  0.000000000E+00  8.913155769E-10  9.729524702E-02  1.360667776E-02 
        34  6.167905986E-17  6.944444776E-02 -1.304905350E-10 -0.000000000E+00  1.304905350E-10  0.000000000E+00  0.000000000E+00  0.000000000E+00  4.730197900E-10  6.949968636E-02  1.358862128E-02 
        35  3.700743526E-17  4.166666791E-02 -1.443565545E-10 -0.000000000E+00  1.443565545E-10  0.000000000E+00  0.000000000E+00  0.000000000E+00  1.423828416E-10  4.170033708E-02  1.356932335E-02 
        36  1.233581148E-17  1.388888899E-02 -1.702986190E-11 -0.000000000E+00  1.702986190E-11  0.000000000E+00  0.000000000E+00  0.000000000E+00  0.000000000E+00  1.391045470E-02  1.356096473E-02 
        37  1.354166679E-02  0.000000000E+00  8.006415979E-18  1.287240106E-11  1.287240106E-11  0.000000000E+00  0.000000000E+00  0.000000000E+00  0.000000000E+00  1.391045470E-02  1.356096473E-02 
        38  4.062499851E-02  0.000000000E+00 -0.000000000E+00  1.420474571E-10  1.420474571E-10  0.000000000E+00  0.000000000E+00  0.000000000E+00 -1.289522655E-10  1.392256096E-02  4.065265507E-02 
        39  6.770832837E-02  0.000000000E+00 -0.000000000E+00  1.344690470E-10  1.344690609E-10  0.000000000E+00  0.000000000E+00  0.000000000E+00 -4.419559996E-10  1.394412667E-02  6.775528193E-02 
        40  9.479166567E-02  0.000000000E+00 -0.000000000E+00 -3.407562427E-11  3.407562080E-11  0.000000000E+00  0.000000000E+00  0.000000000E+00 -8.333596591E-10  1.394547615E-02  9.485922754E-02 
        41  1.218750030E-01  0.000000000E+00 -0.000000000E+00 -3.450958408E-10  3.450958408E-10  0.000000000E+00  0.000000000E+00  0.000000000E+00 -1.269180205E-09  1.392253302E-02  1.219656542E-01 
        42  1.489583254E-01  0.000000000E+00 -3.202566392E-17 -8.008141927E-10  8.008141927E-10  0.000000000E+00  0.000000000E+00  0.000000000E+00 -1.719199783E-09  1.391177531E-02  1.490612477E-01 
        43  1.760416627E-01  0.000000000E+00 -0.000000000E+00 -1.382768233E-09  1.382768233E-09  0.000000000E+00  0.000000000E+00  0.000000000E+00 -2.127487075E-09  1.386129297E-02  1.761586666E-01 
        44  2.031250000E-01  0.000000000E+00 -0.000000000E+00 -2.065201343E-09  2.065201343E-09  0.000000000E+00  0.000000000E+00  0.000000000E+00 -2.468426352E-09  1.383354329E-02  2.032510042E-01 
        45  2.302083373E-01  0.000000000E+00 -0.000000000E+00 -2.821338274E-09  2.821338274E-09  0.000000000E+00  0.000000000E+00  0.000000000E+00 -2.724668269E-09  1.380600408E-02  2.303252965E-01 
        46  2.572916746E-01  0.000000000E+00 -0.000000000E+00 -3.641754009E-09  3.641754009E-09  0.000000000E+00  0.000000000E+00  0.000000000E+00 -2.895277129E-09  1.376448013E-02  2.574131489E-01 
        47  2.843750119E-01  0.000000000E+00 -0.000000000E+00 -4.517546781E-09  4.517546781E-09  0.000000000E+00  0.000000000E+00  0.000000000E+00 -2.959382739E-09  1.375060994E-02  2.845010161E-01 
        48  3.114583492E-01  0.000000000E+00 -0.000000000E+00 -5.426759486E-09  5.426759486E-09  0.000000000E+00  0.000000000E+00  0.000000000E+00 -2.884519068E-09  1.373683568E-02  3.115797937E-01 
        49  3.385416567E-01  0.000000000E+00 -0.000000000E+00 -6.341743131E-09  6.341743131E-09  0.000000000E+00  0.000000000E+00  0.000000000E+00 -2.697546631E-09  1.371607743E-02  3.386653960E-01 
        50  3.656249940E-01  0.000000000E+00 -0.000000000E+00 -7.265042790E-09  7.265042790E-09  0.000000000E+00  0.000000000E+00  0.000000000E+00 -2.403101940E-09  1.370914374E-02  3.657510281E-01 
        51  3.927083313E-01  0.000000000E+00 -0.000000000E+00 -8.195687684E-09  8.195687684E-09  0.000000000E+00  0.000000000E+00  0.000000000E+00 -1.990744680E-09  1.370225474E-02  3.928320706E-01 
        52  4.197916687E-01  0.000000000E+00 -0.000000000E+00 -9.118014788E-09  9.118014788E-09  0.000000000E+00  0.000000000E+00  0.000000000E+00 -1.455919163E-09  1.369187701E-02  4.199165404E-01 
        53  4.468750060E-01  0.000000000E+00 -0.000000000E+00 -1.002353400E-08  1.002353400E-08  0.000000000E+00  0.000000000E+00  0.000000000E+00 -7.941748370E-10  1.368840970E-02  4.470010102E-01 
        54  4.739583433E-01  0.000000000E+00 -0.000000000E+00 -1.090293456E-08  1.090293456E-08  0.000000000E+00  0.000000000E+00  0.000000000E+00 -4.304496429E-12  1.368496567E-02  4.740832150E-01 
        55  5.010416508E-01  0.000000000E+00 -0.000000000E+00 -1.174639319E-08  1.174639319E-08  0.000000000E+00  0.000000000E+00  0.000000000E+00  9.159865089E-10  1.367977634E-02  5.011671185E-01 
        56  5.281250477E-01  0.000000000E+00 -6.405132783E-17 -1.254296755E-08  1.254296755E-08  0.000000000E+00  0.000000000E+00  0.000000000E+00  1.967747743E-09  1.367804315E-02  5.282509923E-01 
        57  5.552083254E-01  0.000000000E+00 -0.000000000E+00 -1.328120547E-08  1.328120636E-08  0.000000000E+00  0.000000000E+00  0.000000000E+00  3.150141037E-09  1.367632113E-02  5.553337932E-01 
        58  5.822917223E-01  0.000000000E+00 -0.000000000E+00 -1.394834470E-08  1.394834470E-08  0.000000000E+00  0.000000000E+00  0.000000000E+00  4.461164327E-09  1.367372647E-02  5.824174285E-01 
        59  6.093750000E-01  0.000000000E+00 -0.000000000E+00 -1.453109189E-08  1.453109189E-08  0.000000000E+00  0.000000000E+00  0.000000000E+00  5.895826938E-09  1.367285941E-02  6.095010042E-01 
        60  6.364582777E-01  0.000000000E+00 -0.000000000E+00 -1.501554792E-08  1.501554792E-08  0.000000000E+00  0.000000000E+00  0.000000000E+00  7.446240957E-09  1.367199887E-02  6.365840435E-01 
        61  6.635416746E-01  0.000000000E+00 -0.000000000E+00 -1.538791849E-08  1.538791849E-08  0.000000000E+00  0.000000000E+00  0.000000000E+00  9.101332132E-09  1.367070153E-02  6.636675596E-01 
        62  6.906249523E-01  0.000000000E+00 -0.000000000E+00 -1.563493690E-08  1.563493690E-08  0.000000000E+00  0.000000000E+00  0.000000000E+00  1.084617640E-08  1.367026847E-02  6.907510161E-01 
        63  7.177083492E-01  0.000000000E+00 -0.000000000E+00 -1.574507458E-08  1.574507458E-08  0.000000000E+00  0.000000000E+00  0.000000000E+00  1.266330596E-08  1.366983727E-02  7.178342342E-01 
        64  7.447916269E-01  0.000000000E+00 -0.000000000E+00 -1.569785191E-08  1.569785191E-08  0.000000000E+00  0.000000000E+00  0.000000000E+00  1.452601417E-08  1.366918907E-02  7.449176311E-01 
        65  7.718750238E-01  0.000000000E+00 -0.000000000E+00 -1.549618567E-08  1.549618567E-08  0.000000000E+00  0.000000000E+00  0.000000000E+00  1.641033620E-08  1.366897207E-02  7.720010281E-01 
        66  7.989583015E-01  0.000000000E+00 -0.000000000E+00 -1.512890968E-08  1.512890968E-08  0.000000000E+00  0.000000000E+00  0.000000000E+00  1.828386686E-08  1.366875693E-02  7.990843058E-01 
        67  8.260416985E-01  0.000000000E+00 -0.000000000E+00 -1.459380705E-08  1.459380705E-08  0.000000000E+00  0.000000000E+00  0.000000000E+00  2.011292999E-08  1.366843283E-02  8.261676431E-01 
        68  8.531249762E-01  0.000000000E+00 -0.000000000E+00 -1.389368709E-08  1.389368709E-08  0.000000000E+00  0.000000000E+00  0.000000000E+00  2.186290438E-08  1.366832480E-02  8.532510400E-01 
        69  8.802083731E-01  0.000000000E+00 -0.000000000E+00 -1.303569253E-08  1.303569253E-08  0.000000000E+00  0.000000000E+00  0.000000000E+00  2.349764472E-08  1.366821676E-02  8.803343177E-01 
        70  9.072916508E-01  0.000000000E+00 -0.000000000E+00 -1.203277478E-08  1.203277478E-08  0.000000000E+00  0.000000000E+00  0.000000000E+00  2.498191343E-08  1.366805471E-02  9.074176550E-01 
        71  9.343750477E-01  0.000000000E+00 -0.000000000E+00 -1.090363888E-08  1.090363888E-08  0.000000000E+00  0.000000000E+00  0.000000000E+00  2.628291185E-08  1.366800070E-02  9.345009923E-01 
        72  9.614583254E-01  0.000000000E+00 -0.000000000E+00 -9.672882939E-09  9.672882939E-09  0.000000000E+00  0.000000000E+00  0.000000000E+00  2.737185945E-08  1.366794668E-02  9.615843296E-01 
        73  9.885416627E-01  0.000000000E+00 -0.000000000E+00 -8.369649862E-09  8.369649862E-09  0.000000000E+00  0.000000000E+00  0.000000000E+00  2.822611478E-08  1.366786566E-02  9.886676669E-01 
        74  1.015625000E+00  0.000000000E+00 -0.000000000E+00 -7.035122263E-09  7.035122263E-09  0.000000000E+00  0.000000000E+00  0.000000000E+00  2.883215444E-08  1.366783865E-02  1.015751004E+00 
        75  1.042708397E+00  0.000000000E+00 -0.000000000E+00 -5.705742101E-09  5.705742101E-09  0.000000000E+00  0.000000000E+00  0.000000000E+00  2.919872522E-08  1.366781164E-02  1.042834282E+00 
        76  1.069791675E+00  0.000000000E+00 -0.000000000E+00 -4.403159171E-09  4.403159615E-09  0.000000000E+00  0.000000000E+00  0.000000000E+00  2.931778553E-08  1.366777066E-02  1.069917679E+00 
        77  1.096874952E+00  0.000000000E+00 -0.000000000E+00 -3.179827734E-09  3.179827512E-09  0.000000000E+00  0.000000000E+00  0.000000000E+00  2.916963204E-08  1.366775762E-02  1.097000957E+00 
        78  1.123958349E+00  0.000000000E+00 -0.000000000E+00 -2.115189801E-09  2.115189801E-09  0.000000000E+00  0.000000000E+00  0.000000000E+00  2.882786987E-08  1.366774365E-02  1.124084353E+00 
        79  1.151041746E+00  0.000000000E+00 -0.000000000E+00 -1.208571909E-09  1.208571909E-09  0.000000000E+00  0.000000000E+00  0.000000000E+00  2.833624535E-08  1.369257551E-02  1.151159406E+00 
        80  1.178125024E+00  0.000000000E+00 -0.000000000E+00 -5.111419066E-10  5.111419066E-10  0.000000000E+00  0.000000000E+00  0.000000000E+00  2.774600816E-08  1.373006683E-02  1.178213954E+00 
        81  1.205208302E+00  0.000000000E+00 -0.000000000E+00 -4.937902864E-11  4.937903211E-11  0.000000000E+00  0.000000000E+00  0.000000000E+00  2.714940806E-08  1.375491265E-02  1.205288887E+00 
        82  1.232291698E+00  0.000000000E+00 -0.000000000E+00  1.925187232E-10  1.925187232E-10  0.000000000E+00  0.000000000E+00  0.000000000E+00  2.661319520E-08  1.381210610E-02  1.232338428E+00 
        83  1.259374976E+00  0.000000000E+00 -0.000000000E+00  1.992984389E-10  1.992984389E-10  0.000000000E+00  0.000000000E+00  0.000000000E+00  2.617905004E-08  1.384064648E-02  1.259400964E+00 
        84  1.286458254E+00  0.000000000E+00 -0.000000000E+00  1.780675433E-11  1.780675260E-11  0.000000000E+00  0.000000000E+00  0.000000000E+00  2.600093829E-08  1.386034861E-02  1.286479115E+00 
        85  1.299999952E+00  1.388888899E-02  2.253944600E-11 -0.000000000E+00  2.253944600E-11  0.000000000E+00  0.000000000E+00  0.000000000E+00  2.600093829E-08  1.386034861E-02  1.286479115E+00 
        86  1.299999952E+00  4.166666791E-02  2.048220205E-10 -0.000000000E+00  2.048220066E-10  0.000000000E+00  0.000000000E+00  0.000000000E+00  2.581170300E-08  4.161842540E-02  1.286484241E+00 
        87  1.299999952E+00  6.944444776E-02  2.002517735E-10 -0.000000000E+00  2.002517596E-10  0.000000000E+00  0.000000000E+00  0.000000000E+00  2.534638810E-08  6.936768442E-02  1.286505103E+00 
        88  1.299999952E+00  9.722222388E-02 -3.532390352E-11 -0.000000000E+00  3.532390352E-11  0.000000000E+00  0.000000000E+00  0.000000000E+00  2.476936700E-08  9.709909558E-02  1.286507249E+00 
        89  1.299999952E+00  1.250000000E-01 -4.755656424E-10 -0.000000000E+00  4.755656424E-10  0.000000000E+00  0.000000000E+00  0.000000000E+00  2.410262567E-08  1.248411611E-01  1.286484241E+00 
        90  1.299999952E+00  1.527777910E-01 -1.129365601E-09  6.245004514E-17  1.129365601E-09  0.000000000E+00  0.000000000E+00  0.000000000E+00  2.339953120E-08  1.525923312E-01  1.286481380E+00 
        91  1.299999952E+00  1.805555522E-01 -1.982994657E-09 -0.000000000E+00  1.982994657E-09  0.000000000E+00  0.000000000E+00  0.000000000E+00  2.272230937E-08  1.803397387E-01  1.286442518E+00 
        92  1.299999952E+00  2.083333433E-01 -3.015425909E-09 -0.000000000E+00  3.015425909E-09  0.000000000E+00  0.000000000E+00  0.000000000E+00  2.210623684E-08  2.081121355E-01  1.286426783E+00 
        93  1.299999952E+00  2.361111045E-01 -4.211920146E-09 -0.000000000E+00  4.211920146E-09  0.000000000E+00  0.000000000E+00  0.000000000E+00  2.157146284E-08  2.358952761E-01  1.286410928E+00 
        94  1.299999952E+00  2.638888955E-01 -5.573045581E-09 -0.000000000E+00  5.573045581E-09  0.000000000E+00  0.000000000E+00  0.000000000E+00  2.113436537E-08  2.636703551E-01  1.286387324E+00 
        95  1.299999952E+00  2.916666865E-01 -7.076319974E-09 -0.000000000E+00  7.076319974E-09  0.000000000E+00  0.000000000E+00  0.000000000E+00  2.079973527E-08  2.914454639E-01  1.286379576E+00 
        96  1.299999952E+00  3.194444478E-01 -8.787576888E-09  1.249000903E-16  8.787576888E-09  0.000000000E+00  0.000000000E+00  0.000000000E+00  2.056142101E-08  3.192259073E-01  1.286371589E+00 
        97  1.299999952E+00  3.472222090E-01 -1.069615863E-08  1.249000903E-16  1.069615863E-08  0.000000000E+00  0.000000000E+00  0.000000000E+00  2.049783454E-08  3.470023572E-01  1.286359787E+00 
        98  1.299999952E+00  3.750000000E-01 -1.282317275E-08 -0.000000000E+00  1.282317275E-08  0.000000000E+00  0.000000000E+00  0.000000000E+00  2.067721105E-08  3.747788072E-01  1.286355972E+00 
        99  1.299999952E+00  4.027777910E-01 -1.514550796E-08 -0.000000000E+00  1.514550796E-08  0.000000000E+00  0.000000000E+00  0.000000000E+00  2.106173547E-08  4.025579095E-01  1.286351919E+00 
