cellnumber     x-coordinate     y-coordinate     y-wall-shear     x-wall-shear       wall-shear velocity-magnitude       y-velocity       x-velocity         pressure     y-coordinate     x-coordinate 
         1  9.276414730E-16  9.814814925E-01  1.071691258E-06 -0.000000000E+00  1.071691372E-06  0.000000000E+00  0.000000000E+00  0.000000000E+00 -1.382211963E-06  9.814784527E-01  1.852055639E-02 
         2  8.388351506E-16  9.444444180E-01  3.398804438E-07 -0.000000000E+00  3.398804438E-07  0.000000000E+00  0.000000000E+00  0.000000000E+00 -7.535398368E-07  9.444390535E-01  1.852080785E-02 
         3  8.059396732E-16  9.074074030E-01  2.580276259E-07 -0.000000000E+00  2.580276259E-07  0.000000000E+00  0.000000000E+00  0.000000000E+00 -3.922752398E-07  9.073989987E-01  1.852284558E-02 
         4  7.730441958E-16  8.703703880E-01  1.849931124E-07 -0.000000000E+00  1.849931124E-07  0.000000000E+00  0.000000000E+00  0.000000000E+00 -2.363917844E-07  8.703568578E-01  1.852511801E-02 
         5  7.401487184E-16  8.333333731E-01  1.382793471E-07 -0.000000000E+00  1.382793471E-07  0.000000000E+00  0.000000000E+00  0.000000000E+00 -1.578032851E-07  8.333178759E-01  1.852555573E-02 
         6  7.072531880E-16  7.962962985E-01  1.074631584E-07 -0.000000000E+00  1.074631655E-07  0.000000000E+00  0.000000000E+00  0.000000000E+00 -1.055228722E-07  7.962780595E-01  1.852757856E-02 
         7  6.743576577E-16  7.592592239E-01  8.476210667E-08 -0.000000000E+00  8.476210667E-08  0.000000000E+00  0.000000000E+00  0.000000000E+00 -7.181780859E-08  7.592371106E-01  1.852999814E-02 
         8  6.414621802E-16  7.222222090E-01  6.834306987E-08 -0.000000000E+00  6.834306987E-08  0.000000000E+00  0.000000000E+00  0.000000000E+00 -4.807455767E-08  7.221991420E-01  1.853102446E-02 
         9  6.085667028E-16  6.851851940E-01  5.541662418E-08 -0.000000000E+00  5.541662063E-08  0.000000000E+00  0.000000000E+00  0.000000000E+00 -3.114896430E-08  6.851601601E-01  1.853300817E-02 
        10  5.756712254E-16  6.481481791E-01  4.512063256E-08 -0.000000000E+00  4.512063256E-08  0.000000000E+00  0.000000000E+00  0.000000000E+00 -1.872803956E-08  6.481221318E-01  1.853489503E-02 
        11  5.427756950E-16  6.111111045E-01  3.661655867E-08 -0.000000000E+00  3.661655867E-08  0.000000000E+00  0.000000000E+00  0.000000000E+00 -9.669901324E-09  6.110857129E-01  1.853593998E-02 
        12  5.098802176E-16  5.740740895E-01  2.951342815E-08 -0.000000000E+00  2.951342815E-08  0.000000000E+00  0.000000000E+00  0.000000000E+00 -3.124547288E-09  5.740485787E-01  1.853680238E-02 
        13  4.769846873E-16  5.370370150E-01  2.350606287E-08 -0.000000000E+00  2.350606287E-08  0.000000000E+00  0.000000000E+00  0.000000000E+00  1.454711018E-09  5.370125175E-01  1.853825711E-02 
        14  4.440892099E-16  5.000000000E-01  1.840798447E-08 -0.000000000E+00  1.840798447E-08  0.000000000E+00  0.000000000E+00  0.000000000E+00  4.499394635E-09  4.999762475E-01  1.853904314E-02 
        15  4.111937324E-16  4.629629850E-01  1.411225359E-08 -0.000000000E+00  1.411225359E-08  0.000000000E+00  0.000000000E+00  0.000000000E+00  6.334830882E-09  4.629395604E-01  1.853945479E-02 
        16  3.782982021E-16  4.259259105E-01  1.045915887E-08 -1.873501354E-16  1.045915887E-08  0.000000000E+00  0.000000000E+00  0.000000000E+00  7.267851210E-09  4.259051085E-01  1.853922941E-02 
        17  3.454027247E-16  3.888888955E-01  7.451845363E-09 -0.000000000E+00  7.451845363E-09  0.000000000E+00  0.000000000E+00  0.000000000E+00  7.449469486E-09  3.888696134E-01  1.853934117E-02 
        18  3.125072208E-16  3.518518507E-01  4.931147490E-09 -0.000000000E+00  4.931147490E-09  0.000000000E+00  0.000000000E+00  0.000000000E+00  7.016306647E-09  3.518344164E-01  1.853832975E-02 
        19  2.796117169E-16  3.148148060E-01  3.007103899E-09 -9.367506770E-17  3.007103899E-09  0.000000000E+00  0.000000000E+00  0.000000000E+00  6.240466366E-09  3.148007393E-01  1.853669435E-02 
        20  2.467162395E-16  2.777777910E-01  1.520335968E-09 -0.000000000E+00  1.520335968E-09  0.000000000E+00  0.000000000E+00  0.000000000E+00  5.231278966E-09  2.777646780E-01  1.853587665E-02 
        21  2.138207356E-16  2.407407463E-01  4.399433040E-10 -0.000000000E+00  4.399433040E-10  0.000000000E+00  0.000000000E+00  0.000000000E+00  4.159024680E-09  2.407294512E-01  1.853412762E-02 
        22  1.809252317E-16  2.037037015E-01 -2.621089457E-10 -0.000000000E+00  2.621089457E-10  0.000000000E+00  0.000000000E+00  0.000000000E+00  3.001445315E-09  2.036953866E-01  1.853119209E-02 
        23  1.480297278E-16  1.666666567E-01 -5.976214523E-10 -0.000000000E+00  5.976214523E-10  0.000000000E+00  0.000000000E+00  0.000000000E+00  1.993335497E-09  1.666592658E-01  1.853004657E-02 
        24  1.151342371E-16  1.296296269E-01 -7.128060919E-10 -0.000000000E+00  7.128060919E-10  0.000000000E+00  0.000000000E+00  0.000000000E+00  1.123331761E-09  1.296242326E-01  1.852793060E-02 
        25  8.223874649E-17  9.259259701E-02 -5.542162840E-10 -2.341876693E-17  5.542162840E-10  0.000000000E+00  0.000000000E+00  0.000000000E+00  4.670168141E-10  9.258991480E-02  1.852434501E-02 
        26  4.934324591E-17  5.555555597E-02 -2.937412535E-10 -0.000000000E+00  2.937412535E-10  0.000000000E+00  0.000000000E+00  0.000000000E+00  1.458728832E-10  5.555330962E-02  1.852265187E-02 
        27  1.644774864E-17  1.851851866E-02 -1.792832896E-11 -0.000000000E+00  1.792832896E-11  0.000000000E+00  0.000000000E+00  0.000000000E+00  0.000000000E+00  1.851808466E-02  1.852021180E-02 
        28  1.851851866E-02  0.000000000E+00 -0.000000000E+00  1.662714758E-11  1.662714758E-11  0.000000000E+00  0.000000000E+00  0.000000000E+00  0.000000000E+00  1.851808466E-02  1.852021180E-02 
        29  5.555555597E-02  0.000000000E+00 -0.000000000E+00  2.980614366E-10  2.980614366E-10  0.000000000E+00  0.000000000E+00  0.000000000E+00 -1.404967948E-10  1.851627417E-02  5.555969104E-02 
        30  9.259259701E-02  0.000000000E+00 -1.170938346E-17  5.454365293E-10  5.454365293E-10  0.000000000E+00  0.000000000E+00  0.000000000E+00 -4.581416080E-10  1.851584017E-02  9.259841591E-02 
        31  1.296296269E-01  0.000000000E+00 -0.000000000E+00  7.344181929E-10  7.344181929E-10  0.000000000E+00  0.000000000E+00  0.000000000E+00 -1.050595166E-09  1.851375774E-02  1.296399385E-01 
        32  1.666666567E-01  0.000000000E+00 -0.000000000E+00  7.324714724E-10  7.324714724E-10  0.000000000E+00  0.000000000E+00  0.000000000E+00 -1.897503710E-09  1.851189137E-02  1.666797101E-01 
        33  2.037037015E-01  0.000000000E+00 -0.000000000E+00  5.981815043E-10  5.981814488E-10  0.000000000E+00  0.000000000E+00  0.000000000E+00 -2.846568981E-09  1.851162128E-02  2.037187964E-01 
        34  2.407407463E-01  0.000000000E+00 -0.000000000E+00  3.577610985E-10  3.577610985E-10  0.000000000E+00  0.000000000E+00  0.000000000E+00 -3.957067118E-09  1.850987040E-02  2.407606393E-01 
        35  2.777777910E-01  0.000000000E+00 -0.000000000E+00 -3.382982436E-11  3.382982436E-11  0.000000000E+00  0.000000000E+00  0.000000000E+00 -5.214400911E-09  1.850846782E-02  2.778001726E-01 
        36  3.148148060E-01  0.000000000E+00 -0.000000000E+00 -5.304848782E-10  5.304848782E-10  0.000000000E+00  0.000000000E+00  0.000000000E+00 -6.498056315E-09  1.850858331E-02  3.148392737E-01 
        37  3.518518507E-01  0.000000000E+00 -0.000000000E+00 -1.092336888E-09  1.092336888E-09  0.000000000E+00  0.000000000E+00  0.000000000E+00 -7.903777188E-09  1.850764267E-02  3.518803120E-01 
        38  3.888888955E-01  0.000000000E+00 -0.000000000E+00 -1.748454159E-09  1.748454048E-09  0.000000000E+00  0.000000000E+00  0.000000000E+00 -9.414392821E-09  1.850708015E-02  3.889189065E-01 
        39  4.259259105E-01  0.000000000E+00 -0.000000000E+00 -2.491105766E-09  2.491105766E-09  0.000000000E+00  0.000000000E+00  0.000000000E+00 -1.103308023E-08  1.850754023E-02  4.259574413E-01 
        40  4.629629850E-01  0.000000000E+00 -0.000000000E+00 -3.329146736E-09  3.329146736E-09  0.000000000E+00  0.000000000E+00  0.000000000E+00 -1.277031103E-08  1.850741170E-02  4.629966021E-01 
        41  5.000000000E-01  0.000000000E+00 -0.000000000E+00 -4.277892263E-09  4.277892263E-09  0.000000000E+00  0.000000000E+00  0.000000000E+00 -1.463822485E-08  1.850752532E-02  5.000340343E-01 
        42  5.370370150E-01  0.000000000E+00 -0.000000000E+00 -5.358879562E-09  5.358879562E-09  0.000000000E+00  0.000000000E+00  0.000000000E+00 -1.664582960E-08  1.850795560E-02  5.370716453E-01 
        43  5.740740895E-01  0.000000000E+00 -0.000000000E+00 -6.597777880E-09  6.597777880E-09  0.000000000E+00  0.000000000E+00  0.000000000E+00 -1.879837086E-08  1.850749925E-02  5.741077065E-01 
        44  6.111111045E-01  0.000000000E+00 -0.000000000E+00 -8.025212495E-09  8.025212495E-09  0.000000000E+00  0.000000000E+00  0.000000000E+00 -2.109741715E-08  1.850782149E-02  6.111434102E-01 
        45  6.481481791E-01  0.000000000E+00 -9.367506770E-17 -9.675327206E-09  9.675327206E-09  0.000000000E+00  0.000000000E+00  0.000000000E+00 -2.353821671E-08  1.850724965E-02  6.481790543E-01 
        46  6.851851940E-01  0.000000000E+00 -0.000000000E+00 -1.158634522E-08  1.158634522E-08  0.000000000E+00  0.000000000E+00  0.000000000E+00 -2.610933691E-08  1.850797236E-02  6.852147579E-01 
        47  7.222222090E-01  0.000000000E+00 -0.000000000E+00 -1.379941761E-08  1.379941850E-08  0.000000000E+00  0.000000000E+00  0.000000000E+00 -2.878982208E-08  1.850851439E-02  7.222514153E-01 
        48  7.592592239E-01  0.000000000E+00 -0.000000000E+00 -1.635856961E-08  1.635856961E-08  0.000000000E+00  0.000000000E+00  0.000000000E+00 -3.154775996E-08  1.850891486E-02  7.592883706E-01 
        49  7.962962985E-01  0.000000000E+00 -0.000000000E+00 -1.930934168E-08  1.930934168E-08  0.000000000E+00  0.000000000E+00  0.000000000E+00 -3.433582663E-08  1.851005480E-02  7.963246703E-01 
        50  8.333333731E-01  0.000000000E+00 -0.000000000E+00 -2.269910127E-08  2.269910127E-08  0.000000000E+00  0.000000000E+00  0.000000000E+00 -3.708983698E-08  1.851111464E-02  8.333607316E-01 
        51  8.703703880E-01  0.000000000E+00 -0.000000000E+00 -2.657214182E-08  2.657214182E-08  0.000000000E+00  0.000000000E+00  0.000000000E+00 -3.971862839E-08  1.851171255E-02  8.703973293E-01 
        52  9.074074030E-01  0.000000000E+00 -0.000000000E+00 -3.096974766E-08  3.096974766E-08  0.000000000E+00  0.000000000E+00  0.000000000E+00 -4.210898297E-08  1.851323433E-02  9.074329138E-01 
        53  9.444444180E-01  0.000000000E+00 -0.000000000E+00 -3.591577524E-08  3.591577524E-08  0.000000000E+00  0.000000000E+00  0.000000000E+00 -4.412653354E-08  1.851418242E-02  9.444689751E-01 
        54  9.814814925E-01  0.000000000E+00 -0.000000000E+00 -4.136557408E-08  4.136557408E-08  0.000000000E+00  0.000000000E+00  0.000000000E+00 -4.562284772E-08  1.851464435E-02  9.815055132E-01 
        55  1.018518448E+00  0.000000000E+00  3.747002708E-16 -4.757395899E-08  4.757395899E-08  0.000000000E+00  0.000000000E+00  0.000000000E+00 -4.638750184E-08  1.851686276E-02  1.018541694E+00 
        56  1.055555582E+00  0.000000000E+00  3.747002708E-16 -5.425424376E-08  5.425424376E-08  0.000000000E+00  0.000000000E+00  0.000000000E+00 -4.592935454E-08  1.851840690E-02  1.055577874E+00 
        57  1.092592597E+00  0.000000000E+00 -0.000000000E+00 -6.141816300E-08  6.141816300E-08  0.000000000E+00  0.000000000E+00  0.000000000E+00 -4.410968302E-08  1.851967722E-02  1.092614889E+00 
        58  1.129629612E+00  0.000000000E+00 -0.000000000E+00 -6.895715643E-08  6.895715643E-08  0.000000000E+00  0.000000000E+00  0.000000000E+00 -4.067510417E-08  1.852196641E-02  1.129650593E+00 
        59  1.166666746E+00  0.000000000E+00 -0.000000000E+00 -7.680148428E-08  7.680148428E-08  0.000000000E+00  0.000000000E+00  0.000000000E+00 -3.521581249E-08  1.852328889E-02  1.166686416E+00 
        60  1.203703642E+00  0.000000000E+00 -0.000000000E+00 -8.472443369E-08  8.472443369E-08  0.000000000E+00  0.000000000E+00  0.000000000E+00 -2.736953952E-08  1.852403581E-02  1.203722954E+00 
        61  1.240740776E+00  0.000000000E+00 -3.747002708E-16 -9.247968791E-08  9.247968791E-08  0.000000000E+00  0.000000000E+00  0.000000000E+00 -1.679242700E-08  1.852625050E-02  1.240758300E+00 
        62  1.277777672E+00  0.000000000E+00 -0.000000000E+00 -9.976547233E-08  9.976547233E-08  0.000000000E+00  0.000000000E+00  0.000000000E+00 -3.213684208E-09  1.852769777E-02  1.277794123E+00 
        63  1.314814806E+00  0.000000000E+00 -0.000000000E+00 -1.061937240E-07  1.061937240E-07  0.000000000E+00  0.000000000E+00  0.000000000E+00  1.354940338E-08  1.852858812E-02  1.314830661E+00 
        64  1.351851940E+00  0.000000000E+00 -0.000000000E+00 -1.114642743E-07  1.114642743E-07  0.000000000E+00  0.000000000E+00  0.000000000E+00  3.343999921E-08  1.853092015E-02  1.351866245E+00 
        65  1.388888836E+00  0.000000000E+00 -0.000000000E+00 -1.150307867E-07  1.150307867E-07  0.000000000E+00  0.000000000E+00  0.000000000E+00  5.652579560E-08  1.853219979E-02  1.388902426E+00 
        66  1.425925970E+00  0.000000000E+00 -0.000000000E+00 -1.164775369E-07  1.164775369E-07  0.000000000E+00  0.000000000E+00  0.000000000E+00  8.228929715E-08  1.853308268E-02  1.425939202E+00 
        67  1.462962866E+00  0.000000000E+00 -0.000000000E+00 -1.153739646E-07  1.153739646E-07  0.000000000E+00  0.000000000E+00  0.000000000E+00  1.097210429E-07  1.853484847E-02  1.462974668E+00 
        68  1.500000000E+00  0.000000000E+00 -0.000000000E+00 -1.117569539E-07  1.117569468E-07  0.000000000E+00  0.000000000E+00  0.000000000E+00  1.381168175E-07  1.853591762E-02  1.500010610E+00 
        69  1.537037134E+00  0.000000000E+00 -0.000000000E+00 -1.052587706E-07  1.052587706E-07  0.000000000E+00  0.000000000E+00  0.000000000E+00  1.662325246E-07  1.853640378E-02  1.537047029E+00 
        70  1.574074030E+00  0.000000000E+00 -0.000000000E+00 -9.607757789E-08  9.607757789E-08  0.000000000E+00  0.000000000E+00  0.000000000E+00  1.927577244E-07  1.853682287E-02  1.574081659E+00 
        71  1.611111164E+00  0.000000000E+00 -0.000000000E+00 -8.452641254E-08  8.452641254E-08  0.000000000E+00  0.000000000E+00  0.000000000E+00  2.163759802E-07  1.853695139E-02  1.611117601E+00 
        72  1.648148060E+00  0.000000000E+00 -0.000000000E+00 -7.122833523E-08  7.122833523E-08  0.000000000E+00  0.000000000E+00  0.000000000E+00  2.359385007E-07  1.853629947E-02  1.648153305E+00 
        73  1.685185194E+00  0.000000000E+00 -0.000000000E+00 -5.698981909E-08  5.698981909E-08  0.000000000E+00  0.000000000E+00  0.000000000E+00  2.507151748E-07  1.853597350E-02  1.685188651E+00 
        74  1.722222328E+00  0.000000000E+00 -0.000000000E+00 -4.283486277E-08  4.283486277E-08  0.000000000E+00  0.000000000E+00  0.000000000E+00  2.603846951E-07  1.853587665E-02  1.722225308E+00 
        75  1.759259224E+00  0.000000000E+00  7.494005416E-16 -2.898312523E-08  2.898312523E-08  0.000000000E+00  0.000000000E+00  0.000000000E+00  2.652923285E-07  1.853542402E-02  1.759261727E+00 
        76  1.796296358E+00  0.000000000E+00 -0.000000000E+00 -1.770499658E-08  1.770499658E-08  0.000000000E+00  0.000000000E+00  0.000000000E+00  2.657207290E-07  1.853346638E-02  1.796297312E+00 
        77  1.833333254E+00  0.000000000E+00 -0.000000000E+00 -8.131148199E-09  8.131148199E-09  0.000000000E+00  0.000000000E+00  0.000000000E+00  2.626912874E-07  1.853189059E-02  1.833334446E+00 
        78  1.870370388E+00  0.000000000E+00 -0.000000000E+00 -2.143133671E-09  2.143133671E-09  0.000000000E+00  0.000000000E+00  0.000000000E+00  2.581855085E-07  1.853002980E-02  1.870370507E+00 
        79  1.907407403E+00  0.000000000E+00 -0.000000000E+00  1.116294612E-09  1.116294612E-09  0.000000000E+00  0.000000000E+00  0.000000000E+00  2.534969497E-07  1.852594689E-02  1.907406807E+00 
        80  1.944444418E+00  0.000000000E+00 -0.000000000E+00  1.733095667E-09  1.733095667E-09  0.000000000E+00  0.000000000E+00  0.000000000E+00  2.496215643E-07  1.852348633E-02  1.944444537E+00 
        81  1.981481552E+00  0.000000000E+00 -0.000000000E+00  2.210300692E-10  2.210300692E-10  0.000000000E+00  0.000000000E+00  0.000000000E+00  2.476571410E-07  1.852097921E-02  1.981480718E+00 
        82  2.000000000E+00  1.851851866E-02  1.857896337E-10 -0.000000000E+00  1.857896337E-10  0.000000000E+00  0.000000000E+00  0.000000000E+00  2.476571410E-07  1.852097921E-02  1.981480718E+00 
        83  2.000000000E+00  5.555555597E-02  1.826248819E-09 -0.000000000E+00  1.826248819E-09  0.000000000E+00  0.000000000E+00  0.000000000E+00  2.459331938E-07  5.556052178E-02  1.981481671E+00 
        84  2.000000000E+00  9.259259701E-02  1.739885902E-09 -0.000000000E+00  1.739885902E-09  0.000000000E+00  0.000000000E+00  0.000000000E+00  2.416010147E-07  9.260001779E-02  1.981480837E+00 
        85  2.000000000E+00  1.296296269E-01 -1.227901669E-10 -0.000000000E+00  1.227901669E-10  0.000000000E+00  0.000000000E+00  0.000000000E+00  2.360666969E-07  1.296418905E-01  1.981480718E+00 
        86  2.000000000E+00  1.666666567E-01 -3.477421684E-09 -0.000000000E+00  3.477421684E-09  0.000000000E+00  0.000000000E+00  0.000000000E+00  2.293899826E-07  1.666810215E-01  1.981481075E+00 
        87  2.000000000E+00  2.037037015E-01 -8.384804850E-09 -0.000000000E+00  8.384804850E-09  0.000000000E+00  0.000000000E+00  0.000000000E+00  2.217480386E-07  2.037203908E-01  1.981479883E+00 
        88  2.000000000E+00  2.407407463E-01 -1.490706580E-08 -0.000000000E+00  1.490706580E-08  0.000000000E+00  0.000000000E+00  0.000000000E+00  2.133458281E-07  2.407612801E-01  1.981478691E+00 
        89  2.000000000E+00  2.777777910E-01 -2.319460535E-08 -0.000000000E+00  2.319460535E-08  0.000000000E+00  0.000000000E+00  0.000000000E+00  2.043760929E-07  2.777993381E-01  1.981478095E+00 
        90  2.000000000E+00  3.148148060E-01 -3.349205357E-08 -0.000000000E+00  3.349205357E-08  0.000000000E+00  0.000000000E+00  0.000000000E+00  1.950446489E-07  3.148381412E-01  1.981476545E+00 
        91  2.000000000E+00  3.518518507E-01 -4.607088044E-08  7.494005416E-16  4.607088044E-08  0.000000000E+00  0.000000000E+00  0.000000000E+00  1.857749226E-07  3.518767357E-01  1.981474400E+00 
        92  2.000000000E+00  3.888888955E-01 -6.127248753E-08 -0.000000000E+00  6.127248753E-08  0.000000000E+00  0.000000000E+00  0.000000000E+00  1.771250879E-07  3.889133036E-01  1.981472969E+00 
        93  2.000000000E+00  4.259259105E-01 -7.895495457E-08 -0.000000000E+00  7.895495457E-08  0.000000000E+00  0.000000000E+00  0.000000000E+00  1.700073824E-07  4.259508550E-01  1.981471419E+00 
        94  2.000000000E+00  4.629629850E-01 -1.006471990E-07 -0.000000000E+00  1.006471990E-07  0.000000000E+00  0.000000000E+00  0.000000000E+00  1.653642130E-07  4.629859924E-01  1.981469631E+00 
        95  2.000000000E+00  5.000000000E-01 -1.242922423E-07  1.498801083E-15  1.242922423E-07  0.000000000E+00  0.000000000E+00  0.000000000E+00  1.657622875E-07  5.000211000E-01  1.981468320E+00 
        96  2.000000000E+00  5.370370150E-01 -1.523179094E-07  1.498801083E-15  1.523179236E-07  0.000000000E+00  0.000000000E+00  0.000000000E+00  1.730956143E-07  5.370566845E-01  1.981468081E+00 
        97  2.000000000E+00  5.740740895E-01 -1.826705045E-07 -0.000000000E+00  1.826705045E-07  0.000000000E+00  0.000000000E+00  0.000000000E+00  1.891849593E-07  5.740898848E-01  1.981467485E+00 
        98  2.000000000E+00  6.111111045E-01 -2.164276225E-07 -0.000000000E+00  2.164276225E-07  0.000000000E+00  0.000000000E+00  0.000000000E+00  2.174635938E-07  6.111250520E-01  1.981467009E+00 
        99  2.000000000E+00  6.481481791E-01 -2.533612076E-07 -0.000000000E+00  2.533612360E-07  0.000000000E+00  0.000000000E+00  0.000000000E+00  2.615270773E-07  6.481601596E-01  1.981467724E+00 
