cellnumber     x-coordinate     y-coordinate     y-wall-shear     x-wall-shear       wall-shear velocity-magnitude       y-velocity       x-velocity         pressure     y-coordinate     x-coordinate 
         1  1.145947910E-15  9.848484993E-01  1.482350172E-07 -0.000000000E+00  1.482350172E-07  0.000000000E+00  0.000000000E+00  0.000000000E+00 -2.618242831E-07  9.848644137E-01  1.468407363E-02 
         2  1.271710068E-15  9.545454979E-01  6.495611871E-08 -0.000000000E+00  6.495611871E-08  0.000000000E+00  0.000000000E+00  0.000000000E+00 -1.526922659E-07  9.545643926E-01  1.466838084E-02 
         3  1.231338254E-15  9.242424369E-01  5.201087561E-08 -0.000000000E+00  5.201087561E-08  0.000000000E+00  0.000000000E+00  0.000000000E+00 -9.049352911E-08  9.242773056E-01  1.464657299E-02 
         4  1.190966546E-15  8.939393759E-01  4.007042165E-08 -0.000000000E+00  4.007042165E-08  0.000000000E+00  0.000000000E+00  0.000000000E+00 -6.054912660E-08  8.939579129E-01  1.466869842E-02 
         5  1.150594732E-15  8.636363745E-01  3.206671906E-08 -0.000000000E+00  3.206671906E-08  0.000000000E+00  0.000000000E+00  0.000000000E+00 -4.436717660E-08  8.636599183E-01  1.470180135E-02 
         6  1.110223025E-15  8.333333731E-01  2.627284523E-08 -0.000000000E+00  2.627284523E-08  0.000000000E+00  0.000000000E+00  0.000000000E+00 -3.321894582E-08  8.333376050E-01  1.473961957E-02 
         7  1.069851317E-15  8.030303121E-01  2.199815441E-08 -0.000000000E+00  2.199815441E-08  0.000000000E+00  0.000000000E+00  0.000000000E+00 -2.573834124E-08  8.030473590E-01  1.481709722E-02 
         8  1.029479503E-15  7.727272511E-01  1.886768075E-08 -0.000000000E+00  1.886768075E-08  0.000000000E+00  0.000000000E+00  0.000000000E+00 -2.036030189E-08  7.727881074E-01  1.487809885E-02 
         9  9.891077952E-16  7.424242496E-01  1.643318903E-08 -0.000000000E+00  1.643318903E-08  0.000000000E+00  0.000000000E+00  0.000000000E+00 -1.630312951E-08  7.424929738E-01  1.492247358E-02 
        10  9.487359815E-16  7.121212482E-01  1.448573794E-08 -0.000000000E+00  1.448573705E-08  0.000000000E+00  0.000000000E+00  0.000000000E+00 -1.313068498E-08  7.122339010E-01  1.498778444E-02 
        11  9.083642736E-16  6.818181872E-01  1.287858264E-08 -0.000000000E+00  1.287858353E-08  0.000000000E+00  0.000000000E+00  0.000000000E+00 -1.056132604E-08  6.819345355E-01  1.499339007E-02 
        12  8.679925658E-16  6.515151262E-01  1.150614093E-08 -0.000000000E+00  1.150614093E-08  0.000000000E+00  0.000000000E+00  0.000000000E+00 -8.444300370E-09  6.516318321E-01  1.499769930E-02 
        13  8.276208050E-16  6.212121248E-01  1.030851138E-08 -0.000000000E+00  1.030851138E-08  0.000000000E+00  0.000000000E+00  0.000000000E+00 -6.675318520E-09  6.213326454E-01  1.500545908E-02 
        14  7.872490442E-16  5.909091234E-01  9.241940546E-09 -0.000000000E+00  9.241940546E-09  0.000000000E+00  0.000000000E+00  0.000000000E+00 -5.181334917E-09  5.910314322E-01  1.500826236E-02 
        15  7.468773364E-16  5.606060624E-01  8.275130803E-09 -0.000000000E+00  8.275130803E-09  0.000000000E+00  0.000000000E+00  0.000000000E+00 -3.913418478E-09  5.607286096E-01  1.501041651E-02 
        16  7.065055226E-16  5.303030014E-01  7.386715684E-09 -0.000000000E+00  7.386715684E-09  0.000000000E+00  0.000000000E+00  0.000000000E+00 -2.837133639E-09  5.304274559E-01  1.501429733E-02 
        17  6.661338148E-16  5.000000000E-01  6.561796440E-09 -0.000000000E+00  6.561796440E-09  0.000000000E+00  0.000000000E+00  0.000000000E+00 -1.926790727E-09  5.001253486E-01  1.501569897E-02 
        18  6.257621069E-16  4.696969986E-01  5.789797530E-09 -0.000000000E+00  5.789797530E-09  0.000000000E+00  0.000000000E+00  0.000000000E+00 -1.163710350E-09  4.698224366E-01  1.501677558E-02 
        19  5.853902932E-16  4.393939376E-01  5.063977238E-09 -0.000000000E+00  5.063977238E-09  0.000000000E+00  0.000000000E+00  0.000000000E+00 -5.335029640E-10  4.395203590E-01  1.501871645E-02 
        20  5.450185854E-16  4.090909362E-01  4.379945739E-09 -0.000000000E+00  4.379945739E-09  0.000000000E+00  0.000000000E+00  0.000000000E+00 -2.439757771E-11  4.092177749E-01  1.501941681E-02 
        21  5.046468246E-16  3.787878752E-01  3.735892928E-09 -0.000000000E+00  3.735892928E-09  0.000000000E+00  0.000000000E+00  0.000000000E+00  3.724909825E-10  3.789148033E-01  1.501995604E-02 
        22  4.642750638E-16  3.484848738E-01  3.130760540E-09 -0.000000000E+00  3.130760540E-09  0.000000000E+00  0.000000000E+00  0.000000000E+00  6.663430363E-10  3.486122489E-01  1.502092555E-02 
        23  4.239033559E-16  3.181818128E-01  2.569460200E-09 -0.000000000E+00  2.569460200E-09  0.000000000E+00  0.000000000E+00  0.000000000E+00  8.658935791E-10  3.183094561E-01  1.502127666E-02 
        24  3.835315951E-16  2.878788114E-01  2.048309744E-09 -0.000000000E+00  2.048309744E-09  0.000000000E+00  0.000000000E+00  0.000000000E+00  9.831312431E-10  2.880064547E-01  1.502154581E-02 
        25  3.431598343E-16  2.575757504E-01  1.569612884E-09 -0.000000000E+00  1.569612995E-09  0.000000000E+00  0.000000000E+00  0.000000000E+00  1.020130980E-09  2.577036619E-01  1.502203103E-02 
        26  3.027881000E-16  2.272727340E-01  1.138098726E-09 -0.000000000E+00  1.138098726E-09  0.000000000E+00  0.000000000E+00  0.000000000E+00  9.737806117E-10  2.274007350E-01  1.502220612E-02 
        27  2.624163657E-16  1.969697028E-01  7.737456231E-10 -0.000000000E+00  7.737456231E-10  0.000000000E+00  0.000000000E+00  0.000000000E+00  8.718725741E-10  1.970977187E-01  1.502234023E-02 
        28  2.220446049E-16  1.666666716E-01  4.645996643E-10 -0.000000000E+00  4.645996643E-10  0.000000000E+00  0.000000000E+00  0.000000000E+00  7.279323255E-10  1.667933762E-01  1.498348732E-02 
        29  1.816728706E-16  1.363636404E-01  2.239795710E-10 -0.000000000E+00  2.239795710E-10  0.000000000E+00  0.000000000E+00  0.000000000E+00  5.518822621E-10  1.364589036E-01  1.493377239E-02 
        30  1.413011098E-16  1.060606092E-01  5.699710148E-11 -0.000000000E+00  5.699709801E-11  0.000000000E+00  0.000000000E+00  0.000000000E+00  3.692325334E-10  1.061545238E-01  1.489474438E-02 
        31  1.009293689E-16  7.575757802E-02 -3.617534744E-11 -0.000000000E+00  3.617534744E-11  0.000000000E+00  0.000000000E+00  0.000000000E+00  2.003579663E-10  7.581625879E-02  1.481531188E-02 
        32  6.055762133E-17  4.545454681E-02 -5.567964839E-11 -0.000000000E+00  5.567964839E-11  0.000000000E+00  0.000000000E+00  0.000000000E+00  6.440471767E-11  4.548574984E-02  1.477545593E-02 
        33  2.018587378E-17  1.515151560E-02 -7.692927892E-12 -0.000000000E+00  7.692927892E-12  0.000000000E+00  0.000000000E+00  0.000000000E+00  0.000000000E+00  1.517904084E-02  1.474573929E-02 
        34  1.470588241E-02  0.000000000E+00 -0.000000000E+00  5.746408557E-12  5.746408557E-12  0.000000000E+00  0.000000000E+00  0.000000000E+00  0.000000000E+00  1.517904084E-02  1.474573929E-02 
        35  4.411764815E-02  0.000000000E+00 -0.000000000E+00  5.485023893E-11  5.485023893E-11  0.000000000E+00  0.000000000E+00  0.000000000E+00 -5.809406428E-11  1.518271957E-02  4.418722168E-02 
        36  7.352941483E-02  0.000000000E+00 -0.000000000E+00  3.923186775E-11  3.923186429E-11  0.000000000E+00  0.000000000E+00  0.000000000E+00 -1.855089554E-10  1.521024574E-02  7.363888621E-02 
        37  1.029411778E-01  0.000000000E+00 -0.000000000E+00 -4.362151959E-11  4.362151959E-11  0.000000000E+00  0.000000000E+00  0.000000000E+00 -3.445895791E-10  1.521364506E-02  1.031199545E-01 
        38  1.323529482E-01  0.000000000E+00 -0.000000000E+00 -1.903944641E-10  1.903944502E-10  0.000000000E+00  0.000000000E+00  0.000000000E+00 -5.155766369E-10  1.518266834E-02  1.325810552E-01 
        39  1.617647111E-01  0.000000000E+00 -0.000000000E+00 -3.984609587E-10  3.984609587E-10  0.000000000E+00  0.000000000E+00  0.000000000E+00 -6.832910904E-10  1.518239081E-02  1.620325446E-01 
        40  1.911764741E-01  0.000000000E+00 -0.000000000E+00 -6.590508694E-10  6.590508694E-10  0.000000000E+00  0.000000000E+00  0.000000000E+00 -8.238745797E-10  1.513549685E-02  1.914883852E-01 
        41  2.205882370E-01  0.000000000E+00 -0.000000000E+00 -9.530161105E-10  9.530161105E-10  0.000000000E+00  0.000000000E+00  0.000000000E+00 -9.280254343E-10  1.511932351E-02  2.209053636E-01 
        42  2.500000000E-01  0.000000000E+00 -0.000000000E+00 -1.287589591E-09  1.287589591E-09  0.000000000E+00  0.000000000E+00  0.000000000E+00 -9.930415379E-10  1.510340627E-02  2.503119409E-01 
        43  2.794117928E-01  0.000000000E+00 -2.949029909E-17 -1.637027403E-09  1.637027403E-09  0.000000000E+00  0.000000000E+00  0.000000000E+00 -1.002120165E-09  1.507927291E-02  2.797263265E-01 
        44  3.088235259E-01  0.000000000E+00 -0.000000000E+00 -2.006540933E-09  2.006540933E-09  0.000000000E+00  0.000000000E+00  0.000000000E+00 -9.481441188E-10  1.507118717E-02  3.091407120E-01 
        45  3.382353187E-01  0.000000000E+00 -0.000000000E+00 -2.367928742E-09  2.367928742E-09  0.000000000E+00  0.000000000E+00  0.000000000E+00 -8.469160928E-10  1.506322715E-02  3.385498822E-01 
        46  3.676470518E-01  0.000000000E+00 -0.000000000E+00 -2.735329518E-09  2.735329518E-09  0.000000000E+00  0.000000000E+00  0.000000000E+00 -6.951015874E-10  1.505116187E-02  3.679629564E-01 
        47  3.970588446E-01  0.000000000E+00 -0.000000000E+00 -3.097254897E-09  3.097254897E-09  0.000000000E+00  0.000000000E+00  0.000000000E+00 -4.922770525E-10  1.504711900E-02  3.973760307E-01 
        48  4.264705777E-01  0.000000000E+00 -0.000000000E+00 -3.449906361E-09  3.449906361E-09  0.000000000E+00  0.000000000E+00  0.000000000E+00 -2.392165632E-10  1.504313853E-02  4.267865121E-01 
        49  4.558823705E-01  0.000000000E+00 -0.000000000E+00 -3.789740965E-09  3.789740965E-09  0.000000000E+00  0.000000000E+00  0.000000000E+00  6.219837839E-11  1.503710542E-02  4.561989307E-01 
        50  4.852941036E-01  0.000000000E+00 -2.949029909E-17 -4.113992702E-09  4.113992702E-09  0.000000000E+00  0.000000000E+00  0.000000000E+00  4.097973627E-10  1.503508445E-02  4.856113493E-01 
        51  5.147058964E-01  0.000000000E+00 -0.000000000E+00 -4.420420030E-09  4.420420030E-09  0.000000000E+00  0.000000000E+00  0.000000000E+00  8.013677499E-10  1.503309421E-02  5.150224566E-01 
        52  5.441176891E-01  0.000000000E+00 -0.000000000E+00 -4.706888213E-09  4.706888213E-09  0.000000000E+00  0.000000000E+00  0.000000000E+00  1.234873315E-09  1.503007766E-02  5.444345474E-01 
        53  5.735294223E-01  0.000000000E+00 -0.000000000E+00 -4.971478340E-09  4.971478340E-09  0.000000000E+00  0.000000000E+00  0.000000000E+00  1.708140518E-09  1.502906717E-02  5.738466382E-01 
        54  6.029411554E-01  0.000000000E+00 -0.000000000E+00 -5.212399401E-09  5.212399401E-09  0.000000000E+00  0.000000000E+00  0.000000000E+00  2.218788042E-09  1.502807159E-02  6.032580733E-01 
        55  6.323529482E-01  0.000000000E+00 -0.000000000E+00 -5.427875482E-09  5.427875482E-09  0.000000000E+00  0.000000000E+00  0.000000000E+00  2.764478202E-09  1.502656378E-02  6.326700449E-01 
        56  6.617647409E-01  0.000000000E+00 -0.000000000E+00 -5.616056065E-09  5.616056065E-09  0.000000000E+00  0.000000000E+00  0.000000000E+00  3.342609300E-09  1.502605900E-02  6.620819569E-01 
        57  6.911764741E-01  0.000000000E+00 -0.000000000E+00 -5.775134149E-09  5.775134593E-09  0.000000000E+00  0.000000000E+00  0.000000000E+00  3.950281879E-09  1.502556074E-02  6.914935708E-01 
        58  7.205882072E-01  0.000000000E+00 -0.000000000E+00 -5.903116662E-09  5.903116662E-09  0.000000000E+00  0.000000000E+00  0.000000000E+00  4.584411961E-09  1.502480730E-02  7.209054232E-01 
        59  7.500000000E-01  0.000000000E+00 -0.000000000E+00 -5.997959462E-09  5.997959018E-09  0.000000000E+00  0.000000000E+00  0.000000000E+00  5.241430845E-09  1.502455398E-02  7.503172159E-01 
        60  7.794117928E-01  0.000000000E+00 -0.000000000E+00 -6.057849777E-09  6.057849777E-09  0.000000000E+00  0.000000000E+00  0.000000000E+00  5.917433654E-09  1.502430532E-02  7.797289491E-01 
        61  8.088235259E-01  0.000000000E+00 -0.000000000E+00 -6.081006809E-09  6.081006809E-09  0.000000000E+00  0.000000000E+00  0.000000000E+00  6.608239289E-09  1.502392814E-02  8.091407418E-01 
        62  8.382352591E-01  0.000000000E+00 -0.000000000E+00 -6.062799152E-09  6.062799152E-09  0.000000000E+00  0.000000000E+00  0.000000000E+00  7.306987015E-09  1.502380241E-02  8.385525346E-01 
        63  8.676470518E-01  0.000000000E+00  7.372574773E-18 -6.005061781E-09  6.005062225E-09  0.000000000E+00  0.000000000E+00  0.000000000E+00  8.009837238E-09  1.502367761E-02  8.679642677E-01 
        64  8.970588446E-01  0.000000000E+00 -0.000000000E+00 -5.903851630E-09  5.903851630E-09  0.000000000E+00  0.000000000E+00  0.000000000E+00  8.709546861E-09  1.502348948E-02  8.973760605E-01 
        65  9.264705777E-01  0.000000000E+00 -0.000000000E+00 -5.758414634E-09  5.758414634E-09  0.000000000E+00  0.000000000E+00  0.000000000E+00  9.398883449E-09  1.502342615E-02  9.267878532E-01 
        66  9.558823109E-01  0.000000000E+00 -0.000000000E+00 -5.568060235E-09  5.568060235E-09  0.000000000E+00  0.000000000E+00  0.000000000E+00  1.007027883E-08  1.502336375E-02  9.561995864E-01 
        67  9.852941036E-01  0.000000000E+00 -0.000000000E+00 -5.332568165E-09  5.332567721E-09  0.000000000E+00  0.000000000E+00  0.000000000E+00  1.071564615E-08  1.502326969E-02  9.856113791E-01 
        68  1.014705896E+00  0.000000000E+00 -0.000000000E+00 -5.053009122E-09  5.053009122E-09  0.000000000E+00  0.000000000E+00  0.000000000E+00  1.132629190E-08  1.502323803E-02  1.015023112E+00 
        69  1.044117689E+00  0.000000000E+00 -0.000000000E+00 -4.730351222E-09  4.730351222E-09  0.000000000E+00  0.000000000E+00  0.000000000E+00  1.189370558E-08  1.502320636E-02  1.044434905E+00 
        70  1.073529482E+00  0.000000000E+00 -0.000000000E+00 -4.369241857E-09  4.369241413E-09  0.000000000E+00  0.000000000E+00  0.000000000E+00  1.240743330E-08  1.500612125E-02  1.073804021E+00 
        71  1.102941155E+00  0.000000000E+00  2.949029909E-17 -3.971852625E-09  3.971852625E-09  0.000000000E+00  0.000000000E+00  0.000000000E+00  1.286235829E-08  1.501733158E-02  1.103175521E+00 
        72  1.132352948E+00  0.000000000E+00 -0.000000000E+00 -3.545908234E-09  3.545908234E-09  0.000000000E+00  0.000000000E+00  0.000000000E+00  1.324860843E-08  1.500027813E-02  1.132544756E+00 
        73  1.161764741E+00  0.000000000E+00 -0.000000000E+00 -3.097516243E-09  3.097516243E-09  0.000000000E+00  0.000000000E+00  0.000000000E+00  1.356110069E-08  1.501480024E-02  1.161910772E+00 
        74  1.191176414E+00  0.000000000E+00 -0.000000000E+00 -2.635206497E-09  2.635206497E-09  0.000000000E+00  0.000000000E+00  0.000000000E+00  1.379503534E-08  1.502306201E-02  1.191313505E+00 
        75  1.220588207E+00  0.000000000E+00  2.949029909E-17 -2.179474823E-09  2.179474823E-09  0.000000000E+00  0.000000000E+00  0.000000000E+00  1.394958371E-08  1.502637472E-02  1.220719934E+00 
        76  1.250000000E+00  0.000000000E+00 -0.000000000E+00 -1.714745679E-09  1.714745568E-09  0.000000000E+00  0.000000000E+00  0.000000000E+00  1.402902239E-08  1.503955573E-02  1.250120997E+00 
        77  1.279411793E+00  0.000000000E+00 -0.000000000E+00 -1.286407425E-09  1.286407425E-09  0.000000000E+00  0.000000000E+00  0.000000000E+00  1.401739880E-08  1.504701097E-02  1.279527068E+00 
        78  1.308823586E+00  0.000000000E+00 -0.000000000E+00 -8.848622945E-10  8.848623501E-10  0.000000000E+00  0.000000000E+00  0.000000000E+00  1.392667226E-08  1.505193114E-02  1.308937192E+00 
        79  1.338235259E+00  0.000000000E+00 -0.000000000E+00 -5.478417719E-10  5.478417719E-10  0.000000000E+00  0.000000000E+00  0.000000000E+00  1.378302183E-08  1.506696828E-02  1.338341951E+00 
        80  1.367647052E+00  0.000000000E+00 -0.000000000E+00 -2.708508973E-10  2.708509250E-10  0.000000000E+00  0.000000000E+00  0.000000000E+00  1.359666513E-08  1.507748477E-02  1.367746472E+00 
        81  1.397058845E+00  0.000000000E+00 -0.000000000E+00 -7.508296762E-11  7.508296762E-11  0.000000000E+00  0.000000000E+00  0.000000000E+00  1.339472355E-08  1.508506667E-02  1.397156954E+00 
        82  1.426470518E+00  0.000000000E+00 -0.000000000E+00  3.660362985E-11  3.660362985E-11  0.000000000E+00  0.000000000E+00  0.000000000E+00  1.320587462E-08  1.510174666E-02  1.426543355E+00 
        83  1.455882311E+00  0.000000000E+00 -0.000000000E+00  6.423667154E-11  6.423666460E-11  0.000000000E+00  0.000000000E+00  0.000000000E+00  1.305197106E-08  1.512354892E-02  1.455927849E+00 
        84  1.485294104E+00  0.000000000E+00 -0.000000000E+00  7.270240833E-12  7.270240399E-12  0.000000000E+00  0.000000000E+00  0.000000000E+00  1.297815722E-08  1.512971241E-02  1.485321403E+00 
        85  1.500000000E+00  1.515151560E-02  9.522087979E-12 -0.000000000E+00  9.522087979E-12  0.000000000E+00  0.000000000E+00  0.000000000E+00  1.297815722E-08  1.512971241E-02  1.485321403E+00 
        86  1.500000000E+00  4.545454681E-02  6.570956279E-11 -0.000000000E+00  6.570956279E-11  0.000000000E+00  0.000000000E+00  0.000000000E+00  1.289733120E-08  4.542657733E-02  1.485339642E+00 
        87  1.500000000E+00  7.575757802E-02  3.514646907E-11 -0.000000000E+00  3.514646907E-11  0.000000000E+00  0.000000000E+00  0.000000000E+00  1.273148431E-08  7.570779324E-02  1.485366821E+00 
        88  1.500000000E+00  1.060606092E-01 -8.272868501E-11 -0.000000000E+00  8.272868501E-11  0.000000000E+00  0.000000000E+00  0.000000000E+00  1.252712867E-08  1.059944257E-01  1.485368133E+00 
        89  1.500000000E+00  1.363636404E-01 -2.880853056E-10 -0.000000000E+00  2.880853056E-10  0.000000000E+00  0.000000000E+00  0.000000000E+00  1.230446944E-08  1.362714618E-01  1.485339642E+00 
        90  1.500000000E+00  1.666666716E-01 -5.775400158E-10 -0.000000000E+00  5.775399603E-10  0.000000000E+00  0.000000000E+00  0.000000000E+00  1.209130485E-08  1.665642411E-01  1.485322714E+00 
        91  1.500000000E+00  1.969697028E-01 -9.439192761E-10 -0.000000000E+00  9.439192761E-10  0.000000000E+00  0.000000000E+00  0.000000000E+00  1.191195853E-08  1.968548596E-01  1.485254288E+00 
        92  1.500000000E+00  2.272727340E-01 -1.366119884E-09 -0.000000000E+00  1.366119884E-09  0.000000000E+00  0.000000000E+00  0.000000000E+00  1.177882947E-08  2.271443158E-01  1.485214829E+00 
        93  1.500000000E+00  2.575757504E-01 -1.866974353E-09 -0.000000000E+00  1.866974353E-09  0.000000000E+00  0.000000000E+00  0.000000000E+00  1.169318153E-08  2.574608624E-01  1.485175014E+00 
        94  1.500000000E+00  2.878788114E-01 -2.414541678E-09 -0.000000000E+00  2.414541678E-09  0.000000000E+00  0.000000000E+00  0.000000000E+00  1.168948405E-08  2.877570987E-01  1.485115647E+00 
        95  1.500000000E+00  3.181818128E-01 -3.029436257E-09 -0.000000000E+00  3.029436257E-09  0.000000000E+00  0.000000000E+00  0.000000000E+00  1.177793152E-08  3.180534244E-01  1.485095859E+00 
        96  1.500000000E+00  3.484848738E-01 -3.675269422E-09 -0.000000000E+00  3.675269422E-09  0.000000000E+00  0.000000000E+00  0.000000000E+00  1.194073285E-08  3.483631611E-01  1.485075951E+00 
        97  1.500000000E+00  3.787878752E-01 -4.388440722E-09 -0.000000000E+00  4.388440722E-09  0.000000000E+00  0.000000000E+00  0.000000000E+00  1.219557610E-08  3.786628246E-01  1.485046268E+00 
        98  1.500000000E+00  4.090909362E-01 -5.160129657E-09 -0.000000000E+00  5.160129657E-09  0.000000000E+00  0.000000000E+00  0.000000000E+00  1.255392501E-08  4.089625180E-01  1.485036373E+00 
        99  1.500000000E+00  4.393939376E-01 -5.995200780E-09 -0.000000000E+00  5.995200780E-09  0.000000000E+00  0.000000000E+00  0.000000000E+00  1.303328911E-08  4.392688870E-01  1.485026360E+00 
