cellnumber     x-coordinate     y-coordinate velocity-magnitude       y-velocity       x-velocity         pressure     y-coordinate     x-coordinate 
         1  1.389565039E-02  1.000000000E+00  8.271310321E-07  8.248056247E-07 -6.197882385E-08  9.639646859E-10  1.013870597E+00  1.389546599E-02 
         2  4.168695211E-02  1.000000000E+00  2.505228167E-06  2.470317895E-06 -4.167702912E-07  8.598701751E-10  1.013834000E+00  4.168657959E-02 
         3  6.947825104E-02  1.000000000E+00  4.177739811E-06  4.049350082E-06 -1.027751296E-06  6.762521099E-10  1.013797402E+00  6.947769225E-02 
         4  9.726954997E-02  1.000000000E+00  5.814134056E-06  5.491237516E-06 -1.910618948E-06  5.161062688E-10  1.013760924E+00  9.726880491E-02 
         5  1.250588149E-01  1.000000000E+00  7.377284419E-06  6.739048331E-06 -3.001591267E-06  3.698868434E-10  1.013730288E+00  1.250580400E-01 
         6  1.528460681E-01  1.000000000E+00  8.845528100E-06  7.749672477E-06 -4.264498784E-06  2.454496884E-10  1.013705492E+00  1.528456062E-01 
         7  1.806333065E-01  1.000000000E+00  1.019941192E-05  8.492561392E-06 -5.648397746E-06  1.391450427E-10  1.013680696E+00  1.806331873E-01 
         8  2.084205449E-01  9.999999404E-01  1.142806832E-05  8.948643881E-06 -7.107918464E-06  5.225355565E-11  1.013655901E+00  2.084207535E-01 
         9  2.362048030E-01  1.000000000E+00  1.252605125E-05  9.110762221E-06 -8.596276530E-06 -1.697922011E-11  1.013642788E+00  2.362052500E-01 
        10  2.639860511E-01  1.000000000E+00  1.349349532E-05  8.982015970E-06 -1.006964794E-05 -6.940430869E-11  1.013641477E+00  2.639864087E-01 
        11  2.917673290E-01  1.000000000E+00  1.433171019E-05  8.571492799E-06 -1.148596675E-05 -1.068167846E-10  1.013640285E+00  2.917675376E-01 
        12  3.195486069E-01  1.000000000E+00  1.504607371E-05  7.897639989E-06 -1.280670222E-05 -1.304728686E-10  1.013639092E+00  3.195486963E-01 
        13  3.473210931E-01  9.999999404E-01  1.564427657E-05  6.986451808E-06 -1.399760276E-05 -1.424360629E-10  1.013656378E+00  3.473210037E-01 
        14  3.750847876E-01  1.000000000E+00  1.613355380E-05  5.868663720E-06 -1.502831856E-05 -1.443608844E-10  1.013692260E+00  3.750845790E-01 
        15  4.028484821E-01  1.000000000E+00  1.651934690E-05  4.578809694E-06 -1.587209226E-05 -1.385456333E-10  1.013728023E+00  4.028481245E-01 
        16  4.306122065E-01  1.000000000E+00  1.680637251E-05  3.156470939E-06 -1.650729610E-05 -1.269944566E-10  1.013763905E+00  4.306116998E-01 
        17  4.583686590E-01  1.000000000E+00  1.699912718E-05  1.645050475E-06 -1.691934267E-05 -1.127881608E-10  1.013808846E+00  4.583683014E-01 
        18  4.829562306E-01  1.000000000E+00  1.709658318E-05  8.862822654E-08 -1.709635399E-05 -9.660042904E-11  1.013862610E+00  4.861177504E-01 
        19  4.968308806E-01  1.000000000E+00  1.499475457E-05  4.236851936E-08 -1.499469454E-05 -7.970835797E-11  9.861067533E-01  4.861189127E-01 
        20  5.138671994E-01  1.000000000E+00  1.498615711E-05 -1.286658176E-06 -1.493082073E-05 -7.449935113E-11  9.861602187E-01  5.138686299E-01 
        21  5.416164398E-01  1.000000000E+00  1.487979443E-05 -2.572969606E-06 -1.465565128E-05 -7.302521088E-11  9.862136245E-01  5.416183472E-01 
        22  5.693724155E-01  1.000000000E+00  1.467070888E-05 -3.777634220E-06 -1.417600743E-05 -7.658258055E-11  9.862567186E-01  5.693746209E-01 
        23  5.971350670E-01  1.000000000E+00  1.435293143E-05 -4.863049526E-06 -1.350397633E-05 -8.712629229E-11  9.862894416E-01  5.971373320E-01 
        24  6.248977780E-01  1.000000000E+00  1.392204103E-05 -5.795450306E-06 -1.265843548E-05 -1.062746210E-10  9.863221645E-01  6.249001026E-01 
        25  6.526604295E-01  1.000000000E+00  1.337330650E-05 -6.545321867E-06 -1.166207949E-05 -1.357676888E-10  9.863548875E-01  6.526628733E-01 
        26  6.804367304E-01  1.000000000E+00  1.270265238E-05 -7.088388884E-06 -1.054097356E-05 -1.764680069E-10  9.863669276E-01  6.804382801E-01 
        27  7.082266808E-01  1.000000000E+00  1.190913736E-05 -7.405533324E-06 -9.326608961E-06 -2.296854928E-10  9.863578677E-01  7.082268596E-01 
        28  7.360165715E-01  1.000000000E+00  1.099958081E-05 -7.489171821E-06 -8.056245861E-06 -2.959323342E-10  9.863487482E-01  7.360154390E-01 
        29  7.638064623E-01  1.000000000E+00  9.981486983E-06 -7.337533589E-06 -6.766881597E-06 -3.749202893E-10  9.863396883E-01  7.638040185E-01 
        30  7.915935516E-01  9.999999404E-01  8.866837561E-06 -6.957580354E-06 -5.496624908E-06 -4.668116449E-10  9.863242507E-01  7.915916443E-01 
        31  8.193776608E-01  9.999999404E-01  7.673319487E-06 -6.366059097E-06 -4.284055649E-06 -5.705434458E-10  9.863035679E-01  8.193773627E-01 
        32  8.471618295E-01  1.000000000E+00  6.424145340E-06 -5.589181001E-06 -3.167127943E-06 -6.856828438E-10  9.862828255E-01  8.471630812E-01 
        33  8.749459982E-01  1.000000000E+00  5.146312105E-06 -4.662299489E-06 -2.178874411E-06 -8.091655679E-10  9.862621427E-01  8.749487996E-01 
        34  9.027333260E-01  1.000000000E+00  3.872919933E-06 -3.628727200E-06 -1.353457378E-06 -9.422069791E-10  9.862345457E-01  9.027361274E-01 
        35  9.305237532E-01  1.000000000E+00  2.638143769E-06 -2.541319191E-06 -7.081663398E-07 -1.075636025E-09  9.861993194E-01  9.305258393E-01 
        36  9.583142996E-01  1.000000000E+00  1.484298537E-06 -1.457422627E-06 -2.811789273E-07 -1.218480761E-09  9.861640930E-01  9.583154917E-01 
        37  9.861047268E-01  1.000000000E+00  4.460799801E-07 -4.445332138E-07 -3.711575758E-08 -1.293002372E-09  9.861288667E-01  9.861052036E-01 
