cellnumber     x-coordinate     y-coordinate     y-wall-shear     x-wall-shear       wall-shear velocity-magnitude       y-velocity       x-velocity         pressure     y-coordinate     x-coordinate 
         1  9.276414730E-16  9.814814925E-01  6.102495718E-07 -0.000000000E+00  6.102495718E-07  0.000000000E+00  0.000000000E+00  0.000000000E+00 -8.740577186E-07  9.814784527E-01  1.852055639E-02 
         2  8.388351506E-16  9.444444180E-01  2.171245228E-07 -0.000000000E+00  2.171245228E-07  0.000000000E+00  0.000000000E+00  0.000000000E+00 -4.899824262E-07  9.444390535E-01  1.852080785E-02 
         3  8.059396732E-16  9.074074030E-01  1.706766426E-07 -0.000000000E+00  1.706766426E-07  0.000000000E+00  0.000000000E+00  0.000000000E+00 -2.652967339E-07  9.073989987E-01  1.852284558E-02 
         4  7.730441958E-16  8.703703880E-01  1.236793281E-07 -0.000000000E+00  1.236793281E-07  0.000000000E+00  0.000000000E+00  0.000000000E+00 -1.678082100E-07  8.703568578E-01  1.852511801E-02 
         5  7.401487184E-16  8.333333731E-01  9.492238462E-08 -0.000000000E+00  9.492238462E-08  0.000000000E+00  0.000000000E+00  0.000000000E+00 -1.166447561E-07  8.333178759E-01  1.852555573E-02 
         6  7.072531880E-16  7.962962985E-01  7.534985258E-08 -0.000000000E+00  7.534985258E-08  0.000000000E+00  0.000000000E+00  0.000000000E+00 -8.271704388E-08  7.962780595E-01  1.852757856E-02 
         7  6.743576577E-16  7.592592239E-01  6.106132133E-08 -0.000000000E+00  6.106132133E-08  0.000000000E+00  0.000000000E+00  0.000000000E+00 -6.030139588E-08  7.592371106E-01  1.852999814E-02 
         8  6.414621802E-16  7.222222090E-01  5.070455344E-08 -0.000000000E+00  5.070455344E-08  0.000000000E+00  0.000000000E+00  0.000000000E+00 -4.427673161E-08  7.221991420E-01  1.853102446E-02 
         9  6.085667028E-16  6.851851940E-01  4.260864372E-08 -0.000000000E+00  4.260864372E-08  0.000000000E+00  0.000000000E+00  0.000000000E+00 -3.238195490E-08  6.851601601E-01  1.853300817E-02 
        10  5.756712254E-16  6.481481791E-01  3.609558874E-08 -0.000000000E+00  3.609558874E-08  0.000000000E+00  0.000000000E+00  0.000000000E+00 -2.321040959E-08  6.481221318E-01  1.853489503E-02 
        11  5.427756950E-16  6.111111045E-01  3.062802634E-08 -0.000000000E+00  3.062802634E-08  0.000000000E+00  0.000000000E+00  0.000000000E+00 -1.605422284E-08  6.110857129E-01  1.853593998E-02 
        12  5.098802176E-16  5.740740895E-01  2.593032811E-08 -0.000000000E+00  2.593032811E-08  0.000000000E+00  0.000000000E+00  0.000000000E+00 -1.043266451E-08  5.740485787E-01  1.853680238E-02 
        13  4.769846873E-16  5.370370150E-01  2.181116088E-08 -0.000000000E+00  2.181116088E-08  0.000000000E+00  0.000000000E+00  0.000000000E+00 -6.048732626E-09  5.370125175E-01  1.853825711E-02 
        14  4.440892099E-16  5.000000000E-01  1.816138173E-08 -0.000000000E+00  1.816138173E-08  0.000000000E+00  0.000000000E+00  0.000000000E+00 -2.684584111E-09  4.999762475E-01  1.853904314E-02 
        15  4.111937324E-16  4.629629850E-01  1.490875157E-08 -0.000000000E+00  1.490875157E-08  0.000000000E+00  0.000000000E+00  0.000000000E+00 -1.800158356E-10  4.629395604E-01  1.853945479E-02 
        16  3.782982021E-16  4.259259105E-01  1.201075506E-08 -0.000000000E+00  1.201075506E-08  0.000000000E+00  0.000000000E+00  0.000000000E+00  1.592874721E-09  4.259051085E-01  1.853922941E-02 
        17  3.454027247E-16  3.888888955E-01  9.446793570E-09 -0.000000000E+00  9.446793570E-09  0.000000000E+00  0.000000000E+00  0.000000000E+00  2.748078654E-09  3.888696134E-01  1.853934117E-02 
        18  3.125072208E-16  3.518518507E-01  7.208605268E-09 -0.000000000E+00  7.208605268E-09  0.000000000E+00  0.000000000E+00  0.000000000E+00  3.401378956E-09  3.518344164E-01  1.853832975E-02 
        19  2.796117169E-16  3.148148060E-01  5.240853973E-09  9.367506770E-17  5.240853973E-09  0.000000000E+00  0.000000000E+00  0.000000000E+00  3.629769152E-09  3.148007393E-01  1.853669435E-02 
        20  2.467162395E-16  2.777777910E-01  3.586620778E-09 -0.000000000E+00  3.586620778E-09  0.000000000E+00  0.000000000E+00  0.000000000E+00  3.467363507E-09  2.777646780E-01  1.853587665E-02 
        21  2.138207356E-16  2.407407463E-01  2.257161125E-09 -0.000000000E+00  2.257161125E-09  0.000000000E+00  0.000000000E+00  0.000000000E+00  3.055376174E-09  2.407294512E-01  1.853412762E-02 
        22  1.809252317E-16  2.037037015E-01  1.215394674E-09 -0.000000000E+00  1.215394674E-09  0.000000000E+00  0.000000000E+00  0.000000000E+00  2.485478712E-09  2.036953866E-01  1.853119209E-02 
        23  1.480297278E-16  1.666666567E-01  4.635179185E-10 -0.000000000E+00  4.635179185E-10  0.000000000E+00  0.000000000E+00  0.000000000E+00  1.829101537E-09  1.666592658E-01  1.853004657E-02 
        24  1.151342371E-16  1.296296269E-01  1.394301341E-13 -0.000000000E+00  1.394301341E-13  0.000000000E+00  0.000000000E+00  0.000000000E+00  1.176793996E-09  1.296242326E-01  1.852793060E-02 
        25  8.223874649E-17  9.259259701E-02 -2.215898298E-10 -0.000000000E+00  2.215898159E-10  0.000000000E+00  0.000000000E+00  0.000000000E+00  6.203114133E-10  9.258991480E-02  1.852434501E-02 
        26  4.934324591E-17  5.555555597E-02 -2.085780992E-10 -0.000000000E+00  2.085780992E-10  0.000000000E+00  0.000000000E+00  0.000000000E+00  1.769661501E-10  5.555330962E-02  1.852265187E-02 
        27  1.644774864E-17  1.851851866E-02 -1.862132150E-11 -0.000000000E+00  1.862132150E-11  0.000000000E+00  0.000000000E+00  0.000000000E+00  0.000000000E+00  1.851808466E-02  1.852021180E-02 
        28  1.851851866E-02  0.000000000E+00 -0.000000000E+00  2.035845104E-11  2.035845104E-11  0.000000000E+00  0.000000000E+00  0.000000000E+00  0.000000000E+00  1.851808466E-02  1.852021180E-02 
        29  5.555555597E-02  0.000000000E+00 -0.000000000E+00  2.078349992E-10  2.078349992E-10  0.000000000E+00  0.000000000E+00  0.000000000E+00 -1.772339220E-10  1.851627417E-02  5.555969104E-02 
        30  9.259259701E-02  0.000000000E+00 -0.000000000E+00  2.252961706E-10  2.252961706E-10  0.000000000E+00  0.000000000E+00  0.000000000E+00 -6.030587141E-10  1.851584017E-02  9.259841591E-02 
        31  1.296296269E-01  0.000000000E+00 -0.000000000E+00  4.457884409E-11  4.457884409E-11  0.000000000E+00  0.000000000E+00  0.000000000E+00 -1.147711703E-09  1.851375774E-02  1.296399385E-01 
        32  1.666666567E-01  0.000000000E+00 -0.000000000E+00 -3.169206286E-10  3.169206286E-10  0.000000000E+00  0.000000000E+00  0.000000000E+00 -1.789288384E-09  1.851189137E-02  1.666797101E-01 
        33  2.037037015E-01  0.000000000E+00 -0.000000000E+00 -8.469667745E-10  8.469667745E-10  0.000000000E+00  0.000000000E+00  0.000000000E+00 -2.448249381E-09  1.851162128E-02  2.037187964E-01 
        34  2.407407463E-01  0.000000000E+00 -0.000000000E+00 -1.506733294E-09  1.506733294E-09  0.000000000E+00  0.000000000E+00  0.000000000E+00 -3.099102530E-09  1.850987040E-02  2.407606393E-01 
        35  2.777777910E-01  0.000000000E+00 -0.000000000E+00 -2.268211619E-09  2.268211619E-09  0.000000000E+00  0.000000000E+00  0.000000000E+00 -3.704149432E-09  1.850846782E-02  2.778001726E-01 
        36  3.148148060E-01  0.000000000E+00 -0.000000000E+00 -3.099741797E-09  3.099741797E-09  0.000000000E+00  0.000000000E+00  0.000000000E+00 -4.256114572E-09  1.850858331E-02  3.148392737E-01 
        37  3.518518507E-01  0.000000000E+00 -0.000000000E+00 -3.983230190E-09  3.983230190E-09  0.000000000E+00  0.000000000E+00  0.000000000E+00 -4.753426985E-09  1.850764267E-02  3.518803120E-01 
        38  3.888888955E-01  0.000000000E+00 -0.000000000E+00 -4.906107964E-09  4.906107964E-09  0.000000000E+00  0.000000000E+00  0.000000000E+00 -5.199840558E-09  1.850708015E-02  3.889189065E-01 
        39  4.259259105E-01  0.000000000E+00 -0.000000000E+00 -5.863940888E-09  5.863940888E-09  0.000000000E+00  0.000000000E+00  0.000000000E+00 -5.598311148E-09  1.850754023E-02  4.259574413E-01 
        40  4.629629850E-01  0.000000000E+00 -0.000000000E+00 -6.856024193E-09  6.856024193E-09  0.000000000E+00  0.000000000E+00  0.000000000E+00 -5.951974025E-09  1.850741170E-02  4.629966021E-01 
        41  5.000000000E-01  0.000000000E+00 -0.000000000E+00 -7.886266751E-09  7.886266751E-09  0.000000000E+00  0.000000000E+00  0.000000000E+00 -6.262188990E-09  1.850752532E-02  5.000340343E-01 
        42  5.370370150E-01  0.000000000E+00 -0.000000000E+00 -8.959888831E-09  8.959888831E-09  0.000000000E+00  0.000000000E+00  0.000000000E+00 -6.527747676E-09  1.850795560E-02  5.370716453E-01 
        43  5.740740895E-01  0.000000000E+00 -0.000000000E+00 -1.008521178E-08  1.008521178E-08  0.000000000E+00  0.000000000E+00  0.000000000E+00 -6.747855164E-09  1.850749925E-02  5.741077065E-01 
        44  6.111111045E-01  0.000000000E+00 -0.000000000E+00 -1.126078519E-08  1.126078519E-08  0.000000000E+00  0.000000000E+00  0.000000000E+00 -6.923397411E-09  1.850782149E-02  6.111434102E-01 
        45  6.481481791E-01  0.000000000E+00 -0.000000000E+00 -1.253483717E-08  1.253483628E-08  0.000000000E+00  0.000000000E+00  0.000000000E+00 -7.049930417E-09  1.850724965E-02  6.481790543E-01 
        46  6.851851940E-01  0.000000000E+00 -0.000000000E+00 -1.390022319E-08  1.390022319E-08  0.000000000E+00  0.000000000E+00  0.000000000E+00 -7.064067997E-09  1.850797236E-02  6.852147579E-01 
        47  7.222222090E-01  0.000000000E+00 -0.000000000E+00 -1.536007943E-08  1.536007943E-08  0.000000000E+00  0.000000000E+00  0.000000000E+00 -6.935829244E-09  1.850851439E-02  7.222514153E-01 
        48  7.592592239E-01  0.000000000E+00 -0.000000000E+00 -1.690018969E-08  1.690018969E-08  0.000000000E+00  0.000000000E+00  0.000000000E+00 -6.694713228E-09  1.850891486E-02  7.592883706E-01 
        49  7.962962985E-01  0.000000000E+00  9.367506770E-17 -1.856066589E-08  1.856066589E-08  0.000000000E+00  0.000000000E+00  0.000000000E+00 -6.314471168E-09  1.851005480E-02  7.963246703E-01 
        50  8.333333731E-01  0.000000000E+00 -0.000000000E+00 -2.035240954E-08  2.035240954E-08  0.000000000E+00  0.000000000E+00  0.000000000E+00 -5.747199605E-09  1.851111464E-02  8.333607316E-01 
        51  8.703703880E-01  0.000000000E+00 -0.000000000E+00 -2.227367268E-08  2.227367268E-08  0.000000000E+00  0.000000000E+00  0.000000000E+00 -4.951334454E-09  1.851171255E-02  8.703973293E-01 
        52  9.074074030E-01  0.000000000E+00 -0.000000000E+00 -2.432751600E-08  2.432751600E-08  0.000000000E+00  0.000000000E+00  0.000000000E+00 -3.881365007E-09  1.851323433E-02  9.074329138E-01 
        53  9.444444180E-01  0.000000000E+00 -0.000000000E+00 -2.651168884E-08  2.651168884E-08  0.000000000E+00  0.000000000E+00  0.000000000E+00 -2.484042749E-09  1.851418242E-02  9.444689751E-01 
        54  9.814814925E-01  0.000000000E+00 -0.000000000E+00 -2.881948014E-08  2.881948014E-08  0.000000000E+00  0.000000000E+00  0.000000000E+00 -7.016946468E-10  1.851464435E-02  9.815055132E-01 
        55  1.018518448E+00  0.000000000E+00 -0.000000000E+00 -3.123702186E-08  3.123702186E-08  0.000000000E+00  0.000000000E+00  0.000000000E+00  1.528693616E-09  1.851686276E-02  1.018541694E+00 
        56  1.055555582E+00  0.000000000E+00 -0.000000000E+00 -3.374138302E-08  3.374138302E-08  0.000000000E+00  0.000000000E+00  0.000000000E+00  4.275329424E-09  1.851840690E-02  1.055577874E+00 
        57  1.092592597E+00  0.000000000E+00 -0.000000000E+00 -3.630140810E-08  3.630140810E-08  0.000000000E+00  0.000000000E+00  0.000000000E+00  7.606229424E-09  1.851967722E-02  1.092614889E+00 
        58  1.129629612E+00  0.000000000E+00 -0.000000000E+00 -3.887535982E-08  3.887535982E-08  0.000000000E+00  0.000000000E+00  0.000000000E+00  1.159186436E-08  1.852196641E-02  1.129650593E+00 
        59  1.166666746E+00  0.000000000E+00 -0.000000000E+00 -4.140563803E-08  4.140563803E-08  0.000000000E+00  0.000000000E+00  0.000000000E+00  1.629695845E-08  1.852328889E-02  1.166686416E+00 
        60  1.203703642E+00  0.000000000E+00 -0.000000000E+00 -4.382156860E-08  4.382156860E-08  0.000000000E+00  0.000000000E+00  0.000000000E+00  2.177755043E-08  1.852403581E-02  1.203722954E+00 
        61  1.240740776E+00  0.000000000E+00 -0.000000000E+00 -4.604117620E-08  4.604117620E-08  0.000000000E+00  0.000000000E+00  0.000000000E+00  2.806970656E-08  1.852625050E-02  1.240758300E+00 
        62  1.277777672E+00  0.000000000E+00 -0.000000000E+00 -4.795931829E-08  4.795931829E-08  0.000000000E+00  0.000000000E+00  0.000000000E+00  3.518966096E-08  1.852769777E-02  1.277794123E+00 
        63  1.314814806E+00  0.000000000E+00 -0.000000000E+00 -4.948935839E-08  4.948935839E-08  0.000000000E+00  0.000000000E+00  0.000000000E+00  4.309917401E-08  1.852858812E-02  1.314830661E+00 
        64  1.351851940E+00  0.000000000E+00 -0.000000000E+00 -5.048933716E-08  5.048933716E-08  0.000000000E+00  0.000000000E+00  0.000000000E+00  5.178354101E-08  1.853092015E-02  1.351866245E+00 
        65  1.388888836E+00  0.000000000E+00 -0.000000000E+00 -5.085313504E-08  5.085313148E-08  0.000000000E+00  0.000000000E+00  0.000000000E+00  6.111901030E-08  1.853219979E-02  1.388902426E+00 
        66  1.425925970E+00  0.000000000E+00 -0.000000000E+00 -5.043387219E-08  5.043386864E-08  0.000000000E+00  0.000000000E+00  0.000000000E+00  7.086640608E-08  1.853308268E-02  1.425939202E+00 
        67  1.462962866E+00  0.000000000E+00  9.367506770E-17 -4.922565466E-08  4.922565466E-08  0.000000000E+00  0.000000000E+00  0.000000000E+00  8.085422820E-08  1.853484847E-02  1.462974668E+00 
        68  1.500000000E+00  0.000000000E+00 -0.000000000E+00 -4.710707557E-08  4.710707557E-08  0.000000000E+00  0.000000000E+00  0.000000000E+00  9.078816277E-08  1.853591762E-02  1.500010610E+00 
        69  1.537037134E+00  0.000000000E+00 -0.000000000E+00 -4.408606458E-08  4.408606458E-08  0.000000000E+00  0.000000000E+00  0.000000000E+00  1.003518193E-07  1.853640378E-02  1.537047029E+00 
        70  1.574074030E+00  0.000000000E+00 -0.000000000E+00 -4.020060373E-08  4.020060373E-08  0.000000000E+00  0.000000000E+00  0.000000000E+00  1.092032988E-07  1.853682287E-02  1.574081659E+00 
        71  1.611111164E+00  0.000000000E+00 -0.000000000E+00 -3.555823014E-08  3.555823014E-08  0.000000000E+00  0.000000000E+00  0.000000000E+00  1.170126396E-07  1.853695139E-02  1.611117601E+00 
        72  1.648148060E+00  0.000000000E+00 -0.000000000E+00 -3.033171225E-08  3.033171225E-08  0.000000000E+00  0.000000000E+00  0.000000000E+00  1.234902243E-07  1.853629947E-02  1.648153305E+00 
        73  1.685185194E+00  0.000000000E+00 -0.000000000E+00 -2.476258487E-08  2.476258487E-08  0.000000000E+00  0.000000000E+00  0.000000000E+00  1.284330864E-07  1.853597350E-02  1.685188651E+00 
        74  1.722222328E+00  0.000000000E+00 -0.000000000E+00 -1.918470716E-08  1.918470716E-08  0.000000000E+00  0.000000000E+00  0.000000000E+00  1.317495588E-07  1.853587665E-02  1.722225308E+00 
        75  1.759259224E+00  0.000000000E+00 -0.000000000E+00 -1.369414182E-08  1.369414182E-08  0.000000000E+00  0.000000000E+00  0.000000000E+00  1.335263420E-07  1.853542402E-02  1.759261727E+00 
        76  1.796296358E+00  0.000000000E+00 -0.000000000E+00 -8.933741746E-09  8.933741746E-09  0.000000000E+00  0.000000000E+00  0.000000000E+00  1.337936339E-07  1.853346638E-02  1.796297312E+00 
        77  1.833333254E+00  0.000000000E+00 -1.873501354E-16 -4.771920636E-09  4.771920636E-09  0.000000000E+00  0.000000000E+00  0.000000000E+00  1.327801016E-07  1.853189059E-02  1.833334446E+00 
        78  1.870370388E+00  0.000000000E+00 -0.000000000E+00 -1.892971335E-09  1.892971335E-09  0.000000000E+00  0.000000000E+00  0.000000000E+00  1.310579023E-07  1.853002980E-02  1.870370507E+00 
        79  1.907407403E+00  0.000000000E+00 -0.000000000E+00 -1.177385550E-10  1.177385550E-10  0.000000000E+00  0.000000000E+00  0.000000000E+00  1.292219878E-07  1.852594689E-02  1.907406807E+00 
        80  1.944444418E+00  0.000000000E+00 -0.000000000E+00  5.718708840E-10  5.718708840E-10  0.000000000E+00  0.000000000E+00  0.000000000E+00  1.275936796E-07  1.852348633E-02  1.944444537E+00 
        81  1.981481552E+00  0.000000000E+00 -0.000000000E+00  1.136444480E-10  1.136444480E-10  0.000000000E+00  0.000000000E+00  0.000000000E+00  1.266377154E-07  1.852097921E-02  1.981480718E+00 
        82  2.000000000E+00  1.851851866E-02  9.705480863E-11 -0.000000000E+00  9.705480863E-11  0.000000000E+00  0.000000000E+00  0.000000000E+00  1.266377154E-07  1.852097921E-02  1.981480718E+00 
        83  2.000000000E+00  5.555555597E-02  5.922692337E-10 -0.000000000E+00  5.922692337E-10  0.000000000E+00  0.000000000E+00  0.000000000E+00  1.257474622E-07  5.556052178E-02  1.981481671E+00 
        84  2.000000000E+00  9.259259701E-02  6.591583529E-11 -0.000000000E+00  6.591583529E-11  0.000000000E+00  0.000000000E+00  0.000000000E+00  1.239955196E-07  9.260001779E-02  1.981480837E+00 
        85  2.000000000E+00  1.296296269E-01 -1.306184938E-09  9.367506770E-17  1.306184938E-09  0.000000000E+00  0.000000000E+00  0.000000000E+00  1.218954395E-07  1.296418905E-01  1.981480718E+00 
        86  2.000000000E+00  1.666666567E-01 -3.457815811E-09 -0.000000000E+00  3.457815811E-09  0.000000000E+00  0.000000000E+00  0.000000000E+00  1.195081722E-07  1.666810215E-01  1.981481075E+00 
        87  2.000000000E+00  2.037037015E-01 -6.364365923E-09 -0.000000000E+00  6.364365479E-09  0.000000000E+00  0.000000000E+00  0.000000000E+00  1.171403667E-07  2.037203908E-01  1.981479883E+00 
        88  2.000000000E+00  2.407407463E-01 -9.932333178E-09 -0.000000000E+00  9.932333178E-09  0.000000000E+00  0.000000000E+00  0.000000000E+00  1.148893531E-07  2.407612801E-01  1.981478691E+00 
        89  2.000000000E+00  2.777777910E-01 -1.417308670E-08 -0.000000000E+00  1.417308670E-08  0.000000000E+00  0.000000000E+00  0.000000000E+00  1.128411355E-07  2.777993381E-01  1.981478095E+00 
        90  2.000000000E+00  3.148148060E-01 -1.913609005E-08 -0.000000000E+00  1.913609005E-08  0.000000000E+00  0.000000000E+00  0.000000000E+00  1.110784140E-07  3.148381412E-01  1.981476545E+00 
        91  2.000000000E+00  3.518518507E-01 -2.481205996E-08 -0.000000000E+00  2.481205996E-08  0.000000000E+00  0.000000000E+00  0.000000000E+00  1.097066971E-07  3.518767357E-01  1.981474400E+00 
        92  2.000000000E+00  3.888888955E-01 -3.163150453E-08 -0.000000000E+00  3.163150453E-08  0.000000000E+00  0.000000000E+00  0.000000000E+00  1.088940209E-07  3.889133036E-01  1.981472969E+00 
        93  2.000000000E+00  4.259259105E-01 -3.936360216E-08 -0.000000000E+00  3.936360216E-08  0.000000000E+00  0.000000000E+00  0.000000000E+00  1.092509265E-07  4.259508550E-01  1.981471419E+00 
        94  2.000000000E+00  4.629629850E-01 -4.827461453E-08 -0.000000000E+00  4.827461453E-08  0.000000000E+00  0.000000000E+00  0.000000000E+00  1.110379984E-07  4.629859924E-01  1.981469631E+00 
        95  2.000000000E+00  5.000000000E-01 -5.828714933E-08 -0.000000000E+00  5.828714933E-08  0.000000000E+00  0.000000000E+00  0.000000000E+00  1.145988264E-07  5.000211000E-01  1.981468320E+00 
        96  2.000000000E+00  5.370370150E-01 -6.968521404E-08 -0.000000000E+00  6.968521404E-08  0.000000000E+00  0.000000000E+00  0.000000000E+00  1.207084210E-07  5.370566845E-01  1.981468081E+00 
        97  2.000000000E+00  5.740740895E-01 -8.245920213E-08 -0.000000000E+00  8.245920213E-08  0.000000000E+00  0.000000000E+00  0.000000000E+00  1.301856258E-07  5.740898848E-01  1.981467485E+00 
        98  2.000000000E+00  6.111111045E-01 -9.671364865E-08 -0.000000000E+00  9.671364865E-08  0.000000000E+00  0.000000000E+00  0.000000000E+00  1.440942157E-07  6.111250520E-01  1.981467009E+00 
        99  2.000000000E+00  6.481481791E-01 -1.125952593E-07 -0.000000000E+00  1.125952593E-07  0.000000000E+00  0.000000000E+00  0.000000000E+00  1.637365017E-07  6.481601596E-01  1.981467724E+00 
