cellnumber     x-coordinate     y-coordinate     y-wall-shear     x-wall-shear       wall-shear velocity-magnitude       y-velocity       x-velocity         pressure     y-coordinate     x-coordinate 
         1  9.276414730E-16  9.814814925E-01  1.684095878E-06 -0.000000000E+00  1.684095878E-06  0.000000000E+00  0.000000000E+00  0.000000000E+00 -1.964232069E-06  9.814784527E-01  1.852055639E-02 
         2  8.388351506E-16  9.444444180E-01  4.790180128E-07 -0.000000000E+00  4.790180128E-07  0.000000000E+00  0.000000000E+00  0.000000000E+00 -1.038819050E-06  9.444390535E-01  1.852080785E-02 
         3  8.059396732E-16  9.074074030E-01  3.515132221E-07 -0.000000000E+00  3.515132221E-07  0.000000000E+00  0.000000000E+00  0.000000000E+00 -5.140936992E-07  9.073989987E-01  1.852284558E-02 
         4  7.730441958E-16  8.703703880E-01  2.505543080E-07 -0.000000000E+00  2.505543080E-07  0.000000000E+00  0.000000000E+00  0.000000000E+00 -2.850089231E-07  8.703568578E-01  1.852511801E-02 
         5  7.401487184E-16  8.333333731E-01  1.825115845E-07 -0.000000000E+00  1.825115845E-07  0.000000000E+00  0.000000000E+00  0.000000000E+00 -1.729685977E-07  8.333178759E-01  1.852555573E-02 
         6  7.072531880E-16  7.962962985E-01  1.371652729E-07 -0.000000000E+00  1.371652729E-07  0.000000000E+00  0.000000000E+00  0.000000000E+00 -9.796669787E-08  7.962780595E-01  1.852757856E-02 
         7  6.743576577E-16  7.592592239E-01  1.027293379E-07 -0.000000000E+00  1.027293308E-07  0.000000000E+00  0.000000000E+00  0.000000000E+00 -5.185608032E-08  7.592371106E-01  1.852999814E-02 
         8  6.414621802E-16  7.222222090E-01  7.785468625E-08 -0.000000000E+00  7.785468625E-08  0.000000000E+00  0.000000000E+00  0.000000000E+00 -2.100536811E-08  7.221991420E-01  1.853102446E-02 
         9  6.085667028E-16  6.851851940E-01  5.820540494E-08 -0.000000000E+00  5.820540494E-08  0.000000000E+00  0.000000000E+00  0.000000000E+00 -1.246518999E-09  6.851601601E-01  1.853300817E-02 
        10  5.756712254E-16  6.481481791E-01  4.296005329E-08 -7.494005416E-16  4.296005329E-08  0.000000000E+00  0.000000000E+00  0.000000000E+00  1.130268679E-08  6.481221318E-01  1.853489503E-02 
        11  5.427756950E-16  6.111111045E-01  3.088025480E-08 -0.000000000E+00  3.088025480E-08  0.000000000E+00  0.000000000E+00  0.000000000E+00  1.859974219E-08  6.110857129E-01  1.853593998E-02 
        12  5.098802176E-16  5.740740895E-01  2.136195931E-08 -0.000000000E+00  2.136195931E-08  0.000000000E+00  0.000000000E+00  0.000000000E+00  2.230640206E-08  5.740485787E-01  1.853680238E-02 
        13  4.769846873E-16  5.370370150E-01  1.384328208E-08  3.747002708E-16  1.384328208E-08  0.000000000E+00  0.000000000E+00  0.000000000E+00  2.344977013E-08  5.370125175E-01  1.853825711E-02 
        14  4.440892099E-16  5.000000000E-01  8.028348653E-09 -0.000000000E+00  8.028348653E-09  0.000000000E+00  0.000000000E+00  0.000000000E+00  2.267878862E-08  4.999762475E-01  1.853904314E-02 
        15  4.111937324E-16  4.629629850E-01  3.671179361E-09 -0.000000000E+00  3.671179583E-09  0.000000000E+00  0.000000000E+00  0.000000000E+00  2.077878136E-08  4.629395604E-01  1.853945479E-02 
        16  3.782982021E-16  4.259259105E-01  4.223354444E-10 -0.000000000E+00  4.223354444E-10  0.000000000E+00  0.000000000E+00  0.000000000E+00  1.829885043E-08  4.259051085E-01  1.853922941E-02 
        17  3.454027247E-16  3.888888955E-01 -1.809489003E-09 -0.000000000E+00  1.809489003E-09  0.000000000E+00  0.000000000E+00  0.000000000E+00  1.532381511E-08  3.888696134E-01  1.853934117E-02 
        18  3.125072208E-16  3.518518507E-01 -3.299310158E-09 -0.000000000E+00  3.299309936E-09  0.000000000E+00  0.000000000E+00  0.000000000E+00  1.252500681E-08  3.518344164E-01  1.853832975E-02 
        19  2.796117169E-16  3.148148060E-01 -4.109386609E-09 -0.000000000E+00  4.109386609E-09  0.000000000E+00  0.000000000E+00  0.000000000E+00  9.476238461E-09  3.148007393E-01  1.853669435E-02 
        20  2.467162395E-16  2.777777910E-01 -4.330537262E-09 -0.000000000E+00  4.330537262E-09  0.000000000E+00  0.000000000E+00  0.000000000E+00  6.904365968E-09  2.777646780E-01  1.853587665E-02 
        21  2.138207356E-16  2.407407463E-01 -4.161720746E-09 -0.000000000E+00  4.161720746E-09  0.000000000E+00  0.000000000E+00  0.000000000E+00  4.578341706E-09  2.407294512E-01  1.853412762E-02 
        22  1.809252317E-16  2.037037015E-01 -3.612247390E-09 -0.000000000E+00  3.612247390E-09  0.000000000E+00  0.000000000E+00  0.000000000E+00  2.725567327E-09  2.036953866E-01  1.853119209E-02 
        23  1.480297278E-16  1.666666567E-01 -2.836403779E-09 -0.000000000E+00  2.836403779E-09  0.000000000E+00  0.000000000E+00  0.000000000E+00  1.317190024E-09  1.666592658E-01  1.853004657E-02 
        24  1.151342371E-16  1.296296269E-01 -1.963623930E-09 -0.000000000E+00  1.963623930E-09  0.000000000E+00  0.000000000E+00  0.000000000E+00  4.251155816E-10  1.296242326E-01  1.852793060E-02 
        25  8.223874649E-17  9.259259701E-02 -1.050598164E-09 -0.000000000E+00  1.050598164E-09  0.000000000E+00  0.000000000E+00  0.000000000E+00 -2.546555328E-11  9.258991480E-02  1.852434501E-02 
        26  4.934324591E-17  5.555555597E-02 -4.077027327E-10 -0.000000000E+00  4.077027327E-10  0.000000000E+00  0.000000000E+00  0.000000000E+00 -6.075320802E-11  5.555330962E-02  1.852265187E-02 
        27  1.644774864E-17  1.851851866E-02  4.629907568E-12 -0.000000000E+00  4.629908002E-12  0.000000000E+00  0.000000000E+00  0.000000000E+00  0.000000000E+00  1.851808466E-02  1.852021180E-02 
        28  1.851851866E-02  0.000000000E+00 -0.000000000E+00 -4.424384470E-12  4.424384470E-12  0.000000000E+00  0.000000000E+00  0.000000000E+00  0.000000000E+00  1.851808466E-02  1.852021180E-02 
        29  5.555555597E-02  0.000000000E+00 -0.000000000E+00  4.076762261E-10  4.076762261E-10  0.000000000E+00  0.000000000E+00  0.000000000E+00  6.092543831E-11  1.851627417E-02  5.555969104E-02 
        30  9.259259701E-02  0.000000000E+00 -0.000000000E+00  1.043225728E-09  1.043225728E-09  0.000000000E+00  0.000000000E+00  0.000000000E+00  3.698816253E-11  1.851584017E-02  9.259841591E-02 
        31  1.296296269E-01  0.000000000E+00 -4.683753385E-17  1.952324524E-09  1.952324524E-09  0.000000000E+00  0.000000000E+00  0.000000000E+00 -3.828526662E-10  1.851375774E-02  1.296399385E-01 
        32  1.666666567E-01  0.000000000E+00 -4.683753385E-17  2.837133417E-09  2.837133417E-09  0.000000000E+00  0.000000000E+00  0.000000000E+00 -1.208519396E-09  1.851189137E-02  1.666797101E-01 
        33  2.037037015E-01  0.000000000E+00 -0.000000000E+00  3.691798423E-09  3.691798423E-09  0.000000000E+00  0.000000000E+00  0.000000000E+00 -2.485010864E-09  1.851162128E-02  2.037187964E-01 
        34  2.407407463E-01  0.000000000E+00 -0.000000000E+00  4.429323575E-09  4.429323575E-09  0.000000000E+00  0.000000000E+00  0.000000000E+00 -4.172517443E-09  1.850987040E-02  2.407606393E-01 
        35  2.777777910E-01  0.000000000E+00 -0.000000000E+00  5.035906803E-09  5.035906803E-09  0.000000000E+00  0.000000000E+00  0.000000000E+00 -6.245637785E-09  1.850846782E-02  2.778001726E-01 
        36  3.148148060E-01  0.000000000E+00 -0.000000000E+00  5.489577237E-09  5.489577237E-09  0.000000000E+00  0.000000000E+00  0.000000000E+00 -8.683736397E-09  1.850858331E-02  3.148392737E-01 
        37  3.518518507E-01  0.000000000E+00  1.170938346E-17  5.801159997E-09  5.801159997E-09  0.000000000E+00  0.000000000E+00  0.000000000E+00 -1.146483353E-08  1.850764267E-02  3.518803120E-01 
        38  3.888888955E-01  0.000000000E+00 -0.000000000E+00  5.922621060E-09  5.922621060E-09  0.000000000E+00  0.000000000E+00  0.000000000E+00 -1.460591292E-08  1.850708015E-02  3.889189065E-01 
        39  4.259259105E-01  0.000000000E+00 -0.000000000E+00  5.881272358E-09  5.881271914E-09  0.000000000E+00  0.000000000E+00  0.000000000E+00 -1.802464134E-08  1.850754023E-02  4.259574413E-01 
        40  4.629629850E-01  0.000000000E+00 -0.000000000E+00  5.700527161E-09  5.700527161E-09  0.000000000E+00  0.000000000E+00  0.000000000E+00 -2.181432457E-08  1.850741170E-02  4.629966021E-01 
        41  5.000000000E-01  0.000000000E+00 -0.000000000E+00  5.369440892E-09  5.369440892E-09  0.000000000E+00  0.000000000E+00  0.000000000E+00 -2.598653381E-08  1.850752532E-02  5.000340343E-01 
        42  5.370370150E-01  0.000000000E+00 -0.000000000E+00  4.795035036E-09  4.795035036E-09  0.000000000E+00  0.000000000E+00  0.000000000E+00 -3.072670296E-08  1.850795560E-02  5.370716453E-01 
        43  5.740740895E-01  0.000000000E+00 -0.000000000E+00  3.898630752E-09  3.898630752E-09  0.000000000E+00  0.000000000E+00  0.000000000E+00 -3.577915209E-08  1.850749925E-02  5.741077065E-01 
        44  6.111111045E-01  0.000000000E+00 -0.000000000E+00  2.828782319E-09  2.828782319E-09  0.000000000E+00  0.000000000E+00  0.000000000E+00 -4.130819775E-08  1.850782149E-02  6.111434102E-01 
        45  6.481481791E-01  0.000000000E+00 -0.000000000E+00  1.443822173E-09  1.443822173E-09  0.000000000E+00  0.000000000E+00  0.000000000E+00 -4.766798867E-08  1.850724965E-02  6.481790543E-01 
        46  6.851851940E-01  0.000000000E+00 -0.000000000E+00 -5.924988833E-10  5.924988833E-10  0.000000000E+00  0.000000000E+00  0.000000000E+00 -5.473501474E-08  1.850797236E-02  6.852147579E-01 
        47  7.222222090E-01  0.000000000E+00 -0.000000000E+00 -3.124251968E-09  3.124251968E-09  0.000000000E+00  0.000000000E+00  0.000000000E+00 -6.214336423E-08  1.850851439E-02  7.222514153E-01 
        48  7.592592239E-01  0.000000000E+00 -0.000000000E+00 -6.217691251E-09  6.217691251E-09  0.000000000E+00  0.000000000E+00  0.000000000E+00 -7.051769302E-08  1.850891486E-02  7.592883706E-01 
        49  7.962962985E-01  0.000000000E+00 -0.000000000E+00 -1.018736828E-08  1.018736828E-08  0.000000000E+00  0.000000000E+00  0.000000000E+00 -7.963171100E-08  1.851005480E-02  7.963246703E-01 
        50  8.333333731E-01  0.000000000E+00 -0.000000000E+00 -1.509232206E-08  1.509232384E-08  0.000000000E+00  0.000000000E+00  0.000000000E+00 -8.947507979E-08  1.851111464E-02  8.333607316E-01 
        51  8.703703880E-01  0.000000000E+00 -0.000000000E+00 -2.110662756E-08  2.110662756E-08  0.000000000E+00  0.000000000E+00  0.000000000E+00 -9.996946915E-08  1.851171255E-02  8.703973293E-01 
        52  9.074074030E-01  0.000000000E+00 -0.000000000E+00 -2.838950408E-08  2.838950408E-08  0.000000000E+00  0.000000000E+00  0.000000000E+00 -1.109855319E-07  1.851323433E-02  9.074329138E-01 
        53  9.444444180E-01  0.000000000E+00 -0.000000000E+00 -3.709904561E-08  3.709904561E-08  0.000000000E+00  0.000000000E+00  0.000000000E+00 -1.222916381E-07  1.851418242E-02  9.444689751E-01 
        54  9.814814925E-01  0.000000000E+00 -0.000000000E+00 -4.738029702E-08  4.738029702E-08  0.000000000E+00  0.000000000E+00  0.000000000E+00 -1.335488236E-07  1.851464435E-02  9.815055132E-01 
        55  1.018518448E+00  0.000000000E+00 -0.000000000E+00 -5.931447689E-08  5.931447689E-08  0.000000000E+00  0.000000000E+00  0.000000000E+00 -1.442482755E-07  1.851686276E-02  1.018541694E+00 
        56  1.055555582E+00  0.000000000E+00 -7.494005416E-16 -7.300327809E-08  7.300327809E-08  0.000000000E+00  0.000000000E+00  0.000000000E+00 -1.537999879E-07  1.851840690E-02  1.055577874E+00 
        57  1.092592597E+00  0.000000000E+00 -0.000000000E+00 -8.812245511E-08  8.812245511E-08  0.000000000E+00  0.000000000E+00  0.000000000E+00 -1.613503287E-07  1.851967722E-02  1.092614889E+00 
        58  1.129629612E+00  0.000000000E+00 -0.000000000E+00 -1.055250323E-07  1.055250323E-07  0.000000000E+00  0.000000000E+00  0.000000000E+00 -1.661884284E-07  1.852196641E-02  1.129650593E+00 
        59  1.166666746E+00  0.000000000E+00 -0.000000000E+00 -1.231165356E-07  1.231165356E-07  0.000000000E+00  0.000000000E+00  0.000000000E+00 -1.665031846E-07  1.852328889E-02  1.166686416E+00 
        60  1.203703642E+00  0.000000000E+00 -0.000000000E+00 -1.427684282E-07  1.427684282E-07  0.000000000E+00  0.000000000E+00  0.000000000E+00 -1.610626725E-07  1.852403581E-02  1.203722954E+00 
        61  1.240740776E+00  0.000000000E+00 -0.000000000E+00 -1.619898029E-07  1.619898171E-07  0.000000000E+00  0.000000000E+00  0.000000000E+00 -1.491397512E-07  1.852625050E-02  1.240758300E+00 
        62  1.277777672E+00  0.000000000E+00 -0.000000000E+00 -1.810435037E-07  1.810435037E-07  0.000000000E+00  0.000000000E+00  0.000000000E+00 -1.291360547E-07  1.852769777E-02  1.277794123E+00 
        63  1.314814806E+00  0.000000000E+00 -0.000000000E+00 -1.986625904E-07  1.986625904E-07  0.000000000E+00  0.000000000E+00  0.000000000E+00 -1.000384984E-07  1.852858812E-02  1.314830661E+00 
        64  1.351851940E+00  0.000000000E+00 -0.000000000E+00 -2.140396589E-07  2.140396447E-07  0.000000000E+00  0.000000000E+00  0.000000000E+00 -6.124191998E-08  1.853092015E-02  1.351866245E+00 
        65  1.388888836E+00  0.000000000E+00 -0.000000000E+00 -2.259093037E-07  2.259093037E-07  0.000000000E+00  0.000000000E+00  0.000000000E+00 -1.248442594E-08  1.853219979E-02  1.388902426E+00 
        66  1.425925970E+00  0.000000000E+00 -0.000000000E+00 -2.324607067E-07  2.324607067E-07  0.000000000E+00  0.000000000E+00  0.000000000E+00  4.569210432E-08  1.853308268E-02  1.425939202E+00 
        67  1.462962866E+00  0.000000000E+00 -0.000000000E+00 -2.333220266E-07  2.333220266E-07  0.000000000E+00  0.000000000E+00  0.000000000E+00  1.107739322E-07  1.853484847E-02  1.462974668E+00 
        68  1.500000000E+00  0.000000000E+00 -0.000000000E+00 -2.276745761E-07  2.276745619E-07  0.000000000E+00  0.000000000E+00  0.000000000E+00  1.800555793E-07  1.853591762E-02  1.500010610E+00 
        69  1.537037134E+00  0.000000000E+00 -0.000000000E+00 -2.150920579E-07  2.150920579E-07  0.000000000E+00  0.000000000E+00  0.000000000E+00  2.504366421E-07  1.853640378E-02  1.537047029E+00 
        70  1.574074030E+00  0.000000000E+00 -0.000000000E+00 -1.957067610E-07  1.957067610E-07  0.000000000E+00  0.000000000E+00  0.000000000E+00  3.176866983E-07  1.853682287E-02  1.574081659E+00 
        71  1.611111164E+00  0.000000000E+00 -1.498801083E-15 -1.704158592E-07  1.704158592E-07  0.000000000E+00  0.000000000E+00  0.000000000E+00  3.776654012E-07  1.853695139E-02  1.611117601E+00 
        72  1.648148060E+00  0.000000000E+00 -0.000000000E+00 -1.409833885E-07  1.409833885E-07  0.000000000E+00  0.000000000E+00  0.000000000E+00  4.267508302E-07  1.853629947E-02  1.648153305E+00 
        73  1.685185194E+00  0.000000000E+00 -0.000000000E+00 -1.095497950E-07  1.095497879E-07  0.000000000E+00  0.000000000E+00  0.000000000E+00  4.628233796E-07  1.853597350E-02  1.685188651E+00 
        74  1.722222328E+00  0.000000000E+00  1.498801083E-15 -7.840898064E-08  7.840898064E-08  0.000000000E+00  0.000000000E+00  0.000000000E+00  4.850417099E-07  1.853587665E-02  1.722225308E+00 
        75  1.759259224E+00  0.000000000E+00  1.498801083E-15 -4.884424598E-08  4.884424598E-08  0.000000000E+00  0.000000000E+00  0.000000000E+00  4.943955787E-07  1.853542402E-02  1.759261727E+00 
        76  1.796296358E+00  0.000000000E+00 -0.000000000E+00 -2.593926496E-08  2.593926318E-08  0.000000000E+00  0.000000000E+00  0.000000000E+00  4.924544896E-07  1.853346638E-02  1.796297312E+00 
        77  1.833333254E+00  0.000000000E+00 -0.000000000E+00 -8.192598600E-09  8.192598600E-09  0.000000000E+00  0.000000000E+00  0.000000000E+00  4.836359153E-07  1.853189059E-02  1.833334446E+00 
        78  1.870370388E+00  0.000000000E+00 -0.000000000E+00  1.660200755E-09  1.660200755E-09  0.000000000E+00  0.000000000E+00  0.000000000E+00  4.718745288E-07  1.853002980E-02  1.870370507E+00 
        79  1.907407403E+00  0.000000000E+00 -0.000000000E+00  5.786976232E-09  5.786976232E-09  0.000000000E+00  0.000000000E+00  0.000000000E+00  4.615740465E-07  1.852594689E-02  1.907406807E+00 
        80  1.944444418E+00  0.000000000E+00 -0.000000000E+00  4.749853844E-09  4.749853844E-09  0.000000000E+00  0.000000000E+00  0.000000000E+00  4.529607054E-07  1.852348633E-02  1.944444537E+00 
        81  1.981481552E+00  0.000000000E+00 -0.000000000E+00  2.761412210E-10  2.761412210E-10  0.000000000E+00  0.000000000E+00  0.000000000E+00  4.496637871E-07  1.852097921E-02  1.981480718E+00 
        82  2.000000000E+00  1.851851866E-02  5.299669037E-10 -0.000000000E+00  5.299669037E-10  0.000000000E+00  0.000000000E+00  0.000000000E+00  4.496637871E-07  1.852097921E-02  1.981480718E+00 
        83  2.000000000E+00  5.555555597E-02  4.577223933E-09 -0.000000000E+00  4.577223933E-09  0.000000000E+00  0.000000000E+00  0.000000000E+00  4.459076592E-07  5.556052178E-02  1.981481671E+00 
        84  2.000000000E+00  9.259259701E-02  6.862056701E-09 -0.000000000E+00  6.862056701E-09  0.000000000E+00  0.000000000E+00  0.000000000E+00  4.382435748E-07  9.260001779E-02  1.981480837E+00 
        85  2.000000000E+00  1.296296269E-01  6.238066064E-09 -0.000000000E+00  6.238066064E-09  0.000000000E+00  0.000000000E+00  0.000000000E+00  4.253731731E-07  1.296418905E-01  1.981480718E+00 
        86  2.000000000E+00  1.666666567E-01  2.677802424E-09 -0.000000000E+00  2.677802424E-09  0.000000000E+00  0.000000000E+00  0.000000000E+00  4.092412098E-07  1.666810215E-01  1.981481075E+00 
        87  2.000000000E+00  2.037037015E-01 -4.292032951E-09 -0.000000000E+00  4.292032951E-09  0.000000000E+00  0.000000000E+00  0.000000000E+00  3.896014960E-07  2.037203908E-01  1.981479883E+00 
        88  2.000000000E+00  2.407407463E-01 -1.445759867E-08 -0.000000000E+00  1.445759867E-08  0.000000000E+00  0.000000000E+00  0.000000000E+00  3.677343443E-07  2.407612801E-01  1.981478691E+00 
        89  2.000000000E+00  2.777777910E-01 -2.818799594E-08 -0.000000000E+00  2.818799771E-08  0.000000000E+00  0.000000000E+00  0.000000000E+00  3.421744736E-07  2.777993381E-01  1.981478095E+00 
        90  2.000000000E+00  3.148148060E-01 -4.656873642E-08 -0.000000000E+00  4.656873642E-08  0.000000000E+00  0.000000000E+00  0.000000000E+00  3.140579281E-07  3.148381412E-01  1.981476545E+00 
        91  2.000000000E+00  3.518518507E-01 -7.000810598E-08 -1.498801083E-15  7.000810598E-08  0.000000000E+00  0.000000000E+00  0.000000000E+00  2.839419437E-07  3.518767357E-01  1.981474400E+00 
        92  2.000000000E+00  3.888888955E-01 -9.918616684E-08 -0.000000000E+00  9.918616684E-08  0.000000000E+00  0.000000000E+00  0.000000000E+00  2.532311214E-07  3.889133036E-01  1.981472969E+00 
        93  2.000000000E+00  4.259259105E-01 -1.346634235E-07 -0.000000000E+00  1.346634235E-07  0.000000000E+00  0.000000000E+00  0.000000000E+00  2.238818695E-07  4.259508550E-01  1.981471419E+00 
        94  2.000000000E+00  4.629629850E-01 -1.762583111E-07 -0.000000000E+00  1.762583111E-07  0.000000000E+00  0.000000000E+00  0.000000000E+00  1.990504757E-07  4.629859924E-01  1.981469631E+00 
        95  2.000000000E+00  5.000000000E-01 -2.259510694E-07 -0.000000000E+00  2.259510694E-07  0.000000000E+00  0.000000000E+00  0.000000000E+00  1.822545386E-07  5.000211000E-01  1.981468320E+00 
        96  2.000000000E+00  5.370370150E-01 -2.798720402E-07 -0.000000000E+00  2.798720402E-07  0.000000000E+00  0.000000000E+00  0.000000000E+00  1.800816705E-07  5.370566845E-01  1.981468081E+00 
        97  2.000000000E+00  5.740740895E-01 -3.421078247E-07 -0.000000000E+00  3.421078247E-07  0.000000000E+00  0.000000000E+00  0.000000000E+00  1.986227005E-07  5.740898848E-01  1.981467485E+00 
        98  2.000000000E+00  6.111111045E-01 -4.103404763E-07 -0.000000000E+00  4.103404478E-07  0.000000000E+00  0.000000000E+00  0.000000000E+00  2.450454701E-07  6.111250520E-01  1.981467009E+00 
        99  2.000000000E+00  6.481481791E-01 -4.851879680E-07 -0.000000000E+00  4.851879680E-07  0.000000000E+00  0.000000000E+00  0.000000000E+00  3.304070617E-07  6.481601596E-01  1.981467724E+00 
