cellnumber     x-coordinate     y-coordinate     y-wall-shear     x-wall-shear       wall-shear velocity-magnitude       y-velocity       x-velocity         pressure     y-coordinate     x-coordinate 
         1  9.317533944E-16  9.861111045E-01  8.056807133E-08 -3.996802889E-15  8.056807133E-08  0.000000000E+00  0.000000000E+00  0.000000000E+00 -1.470473876E-07  9.861333370E-01  1.354842074E-02 
         2  8.511709679E-16  9.583333135E-01  3.623573974E-08 -0.000000000E+00  3.623573974E-08  0.000000000E+00  0.000000000E+00  0.000000000E+00 -8.688020614E-08  9.583886266E-01  1.357317064E-02 
         3  8.264993863E-16  9.305555820E-01  2.917712294E-08 -0.000000000E+00  2.917712294E-08  0.000000000E+00  0.000000000E+00  0.000000000E+00 -5.230766931E-08  9.306330681E-01  1.357992459E-02 
         4  8.018277518E-16  9.027777910E-01  2.270154376E-08 -0.000000000E+00  2.270154376E-08  0.000000000E+00  0.000000000E+00  0.000000000E+00 -3.555326344E-08  9.028995037E-01  1.360805519E-02 
         5  7.771561172E-16  8.750000000E-01  1.835542740E-08 -0.000000000E+00  1.835542740E-08  0.000000000E+00  0.000000000E+00  0.000000000E+00 -2.632761920E-08  8.751382828E-01  1.362042781E-02 
         6  7.524844827E-16  8.472222090E-01  1.514895764E-08 -0.000000000E+00  1.514895764E-08  0.000000000E+00  0.000000000E+00  0.000000000E+00 -1.992709997E-08  8.473715782E-01  1.362380758E-02 
         7  7.278128482E-16  8.194444180E-01  1.275150119E-08 -0.000000000E+00  1.275150119E-08  0.000000000E+00  0.000000000E+00  0.000000000E+00 -1.558586682E-08  8.196159005E-01  1.363787241E-02 
         8  7.031412666E-16  7.916666865E-01  1.099197089E-08 -0.000000000E+00  1.099197178E-08  0.000000000E+00  0.000000000E+00  0.000000000E+00 -1.244077996E-08  7.918463945E-01  1.364406012E-02 
         9  6.784696320E-16  7.638888955E-01  9.612607599E-09 -0.000000000E+00  9.612607599E-09  0.000000000E+00  0.000000000E+00  0.000000000E+00 -1.007133399E-08  7.640741467E-01  1.364575140E-02 
        10  6.537979975E-16  7.361111045E-01  8.506116700E-09 -0.000000000E+00  8.506116700E-09  0.000000000E+00  0.000000000E+00  0.000000000E+00 -8.212336589E-09  7.363074422E-01  1.365278568E-02 
        11  6.291263630E-16  7.083333135E-01  7.588226048E-09 -0.000000000E+00  7.588226048E-09  0.000000000E+00  0.000000000E+00  0.000000000E+00 -6.715134226E-09  7.085338235E-01  1.365588047E-02 
        12  6.044547814E-16  6.805555820E-01  6.809200759E-09 -0.000000000E+00  6.809200759E-09  0.000000000E+00  0.000000000E+00  0.000000000E+00 -5.483702825E-09  6.807587743E-01  1.365672797E-02 
        13  5.797831468E-16  6.527777910E-01  6.132701014E-09 -0.000000000E+00  6.132701014E-09  0.000000000E+00  0.000000000E+00  0.000000000E+00 -4.455144254E-09  6.529865265E-01  1.366024558E-02 
        14  5.551115123E-16  6.250000000E-01  5.534550596E-09 -0.000000000E+00  5.534550596E-09  0.000000000E+00  0.000000000E+00  0.000000000E+00 -3.585478581E-09  6.252108216E-01  1.366179343E-02 
        15  5.304398778E-16  5.972222090E-01  4.997155578E-09 -0.000000000E+00  4.997155578E-09  0.000000000E+00  0.000000000E+00  0.000000000E+00 -2.844862790E-09  5.974344611E-01  1.366221812E-02 
        16  5.057682432E-16  5.694444180E-01  4.508065476E-09 -0.000000000E+00  4.508065476E-09  0.000000000E+00  0.000000000E+00  0.000000000E+00 -2.211319128E-09  5.696594119E-01  1.366397832E-02 
        17  4.810966617E-16  5.416666865E-01  4.058185787E-09 -0.000000000E+00  4.058185787E-09  0.000000000E+00  0.000000000E+00  0.000000000E+00 -1.668596927E-09  5.418826938E-01  1.366475224E-02 
        18  4.564250271E-16  5.138888955E-01  3.640933777E-09 -0.000000000E+00  3.640933777E-09  0.000000000E+00  0.000000000E+00  0.000000000E+00 -1.204571332E-09  5.141056180E-01  1.366496459E-02 
        19  4.317533926E-16  4.861111045E-01  3.251387160E-09 -0.000000000E+00  3.251387160E-09  0.000000000E+00  0.000000000E+00  0.000000000E+00 -8.098419157E-10  4.863291979E-01  1.366584562E-02 
        20  4.070817580E-16  4.583333135E-01  2.886011208E-09 -0.000000000E+00  2.886011208E-09  0.000000000E+00  0.000000000E+00  0.000000000E+00 -4.769853956E-10  4.585519433E-01  1.366623305E-02 
        21  3.824101500E-16  4.305555522E-01  2.542350774E-09 -0.000000000E+00  2.542350774E-09  0.000000000E+00  0.000000000E+00  0.000000000E+00 -2.001633304E-10  4.307745099E-01  1.366633922E-02 
        22  3.577385419E-16  4.027777910E-01  2.218616180E-09 -0.000000000E+00  2.218616402E-09  0.000000000E+00  0.000000000E+00  0.000000000E+00  2.558170516E-11  4.029974341E-01  1.366677973E-02 
        23  3.330669074E-16  3.750000000E-01  1.913799119E-09 -0.000000000E+00  1.913799119E-09  0.000000000E+00  0.000000000E+00  0.000000000E+00  2.040786151E-10  3.752199113E-01  1.366697345E-02 
        24  3.083952729E-16  3.472222090E-01  1.627351920E-09 -0.000000000E+00  1.627351920E-09  0.000000000E+00  0.000000000E+00  0.000000000E+00  3.390660808E-10  3.474422991E-01  1.366702747E-02 
        25  2.837236648E-16  3.194444478E-01  1.359651169E-09 -0.000000000E+00  1.359651169E-09  0.000000000E+00  0.000000000E+00  0.000000000E+00  4.344065940E-10  3.196648657E-01  1.366724726E-02 
        26  2.590520567E-16  2.916666865E-01  1.112884784E-09 -0.000000000E+00  1.112884784E-09  0.000000000E+00  0.000000000E+00  0.000000000E+00  4.937353304E-10  2.918872237E-01  1.366734412E-02 
        27  2.343804222E-16  2.638888955E-01  8.804351692E-10 -0.000000000E+00  8.804351692E-10  0.000000000E+00  0.000000000E+00  0.000000000E+00  5.211075460E-10  2.641095221E-01  1.366737112E-02 
        28  2.097087877E-16  2.361111045E-01  6.717924550E-10 -0.000000000E+00  6.717924550E-10  0.000000000E+00  0.000000000E+00  0.000000000E+00  5.126887248E-10  2.362993211E-01  1.367031969E-02 
        29  1.850371796E-16  2.083333433E-01  4.847990343E-10 -0.000000000E+00  4.847990343E-10  0.000000000E+00  0.000000000E+00  0.000000000E+00  4.750128069E-10  2.084827274E-01  1.364990510E-02 
        30  1.603655451E-16  1.805555522E-01  3.256117043E-10 -0.000000000E+00  3.256116765E-10  0.000000000E+00  0.000000000E+00  0.000000000E+00  4.174540713E-10  1.806723326E-01  1.365275774E-02 
        31  1.356939370E-16  1.527777910E-01  1.910318431E-10  7.806255642E-18  1.910318431E-10  0.000000000E+00  0.000000000E+00  0.000000000E+00  3.421036232E-10  1.528561264E-01  1.362435985E-02 
        32  1.110223025E-16  1.250000000E-01  8.815402575E-11 -0.000000000E+00  8.815402575E-11  0.000000000E+00  0.000000000E+00  0.000000000E+00  2.552888734E-10  1.250726730E-01  1.361466106E-02 
        33  8.635068116E-17  9.722222388E-02  1.739300370E-11 -0.000000000E+00  1.739300370E-11  0.000000000E+00  0.000000000E+00  0.000000000E+00  1.697080670E-10  9.729524702E-02  1.360667776E-02 
        34  6.167905986E-17  6.944444776E-02 -2.136073957E-11 -0.000000000E+00  2.136073957E-11  0.000000000E+00  0.000000000E+00  0.000000000E+00  9.041484228E-11  6.949968636E-02  1.358862128E-02 
        35  3.700743526E-17  4.166666791E-02 -2.656455785E-11 -0.000000000E+00  2.656455785E-11  0.000000000E+00  0.000000000E+00  0.000000000E+00  2.806549611E-11  4.170033708E-02  1.356932335E-02 
        36  1.233581148E-17  1.388888899E-02 -3.311315848E-12 -0.000000000E+00  3.311315848E-12  0.000000000E+00  0.000000000E+00  0.000000000E+00  0.000000000E+00  1.391045470E-02  1.356096473E-02 
        37  1.354166679E-02  0.000000000E+00 -0.000000000E+00  2.585523592E-12  2.585523592E-12  0.000000000E+00  0.000000000E+00  0.000000000E+00  0.000000000E+00  1.391045470E-02  1.356096473E-02 
        38  4.062499851E-02  0.000000000E+00 -0.000000000E+00  2.607205424E-11  2.607205424E-11  0.000000000E+00  0.000000000E+00  0.000000000E+00 -2.572809847E-11  1.392256096E-02  4.065265507E-02 
        39  6.770832837E-02  0.000000000E+00 -0.000000000E+00  2.191491433E-11  2.191491433E-11  0.000000000E+00  0.000000000E+00  0.000000000E+00 -8.445728839E-11  1.394412667E-02  6.775528193E-02 
        40  9.479166567E-02  0.000000000E+00 -0.000000000E+00 -1.402168312E-11  1.402168312E-11  0.000000000E+00  0.000000000E+00  0.000000000E+00 -1.589868098E-10  1.394547615E-02  9.485922754E-02 
        41  1.218750030E-01  0.000000000E+00 -0.000000000E+00 -7.905555377E-11  7.905555377E-11  0.000000000E+00  0.000000000E+00  0.000000000E+00 -2.382902209E-10  1.392253302E-02  1.219656542E-01 
        42  1.489583254E-01  0.000000000E+00 -0.000000000E+00 -1.725668358E-10  1.725668219E-10  0.000000000E+00  0.000000000E+00  0.000000000E+00 -3.184534303E-10  1.391177531E-02  1.490612477E-01 
        43  1.760416627E-01  0.000000000E+00 -0.000000000E+00 -2.918677244E-10  2.918677244E-10  0.000000000E+00  0.000000000E+00  0.000000000E+00 -3.865870957E-10  1.386129297E-02  1.761586666E-01 
        44  2.031250000E-01  0.000000000E+00  1.601283196E-17 -4.290180156E-10  4.290180156E-10  0.000000000E+00  0.000000000E+00  0.000000000E+00 -4.377194995E-10  1.383354329E-02  2.032510042E-01 
        45  2.302083373E-01  0.000000000E+00 -0.000000000E+00 -5.838559636E-10  5.838559636E-10  0.000000000E+00  0.000000000E+00  0.000000000E+00 -4.688308075E-10  1.380600408E-02  2.303252965E-01 
        46  2.572916746E-01  0.000000000E+00 -0.000000000E+00 -7.476654296E-10  7.476654296E-10  0.000000000E+00  0.000000000E+00  0.000000000E+00 -4.744459270E-10  1.376448013E-02  2.574131489E-01 
        47  2.843750119E-01  0.000000000E+00 -0.000000000E+00 -9.199215834E-10  9.199215834E-10  0.000000000E+00  0.000000000E+00  0.000000000E+00 -4.507916818E-10  1.375060994E-02  2.845010161E-01 
        48  3.114583492E-01  0.000000000E+00 -0.000000000E+00 -1.090685209E-09  1.090685209E-09  0.000000000E+00  0.000000000E+00  0.000000000E+00 -4.023130440E-10  1.373683568E-02  3.115797937E-01 
        49  3.385416567E-01  0.000000000E+00 -0.000000000E+00 -1.262198124E-09  1.262198124E-09  0.000000000E+00  0.000000000E+00  0.000000000E+00 -3.283019967E-10  1.371607743E-02  3.386653960E-01 
        50  3.656249940E-01  0.000000000E+00 -0.000000000E+00 -1.429722118E-09  1.429722118E-09  0.000000000E+00  0.000000000E+00  0.000000000E+00 -2.286401901E-10  1.370914374E-02  3.657510281E-01 
        51  3.927083313E-01  0.000000000E+00 -0.000000000E+00 -1.590743315E-09  1.590743315E-09  0.000000000E+00  0.000000000E+00  0.000000000E+00 -1.042779404E-10  1.370225474E-02  3.928320706E-01 
        52  4.197916687E-01  0.000000000E+00 -0.000000000E+00 -1.742963107E-09  1.742963107E-09  0.000000000E+00  0.000000000E+00  0.000000000E+00  4.350968891E-11  1.369187701E-02  4.199165404E-01 
        53  4.468750060E-01  0.000000000E+00 -0.000000000E+00 -1.884413070E-09  1.884413070E-09  0.000000000E+00  0.000000000E+00  0.000000000E+00  2.131597954E-10  1.368840970E-02  4.470010102E-01 
        54  4.739583433E-01  0.000000000E+00 -0.000000000E+00 -2.013456291E-09  2.013456291E-09  0.000000000E+00  0.000000000E+00  0.000000000E+00  4.027795042E-10  1.368496567E-02  4.740832150E-01 
        55  5.010416508E-01  0.000000000E+00 -0.000000000E+00 -2.128619947E-09  2.128619947E-09  0.000000000E+00  0.000000000E+00  0.000000000E+00  6.105567163E-10  1.367977634E-02  5.011671185E-01 
        56  5.281250477E-01  0.000000000E+00 -0.000000000E+00 -2.228611740E-09  2.228611740E-09  0.000000000E+00  0.000000000E+00  0.000000000E+00  8.344244740E-10  1.367804315E-02  5.282509923E-01 
        57  5.552083254E-01  0.000000000E+00 -0.000000000E+00 -2.312386727E-09  2.312386727E-09  0.000000000E+00  0.000000000E+00  0.000000000E+00  1.072155253E-09  1.367632113E-02  5.553337932E-01 
        58  5.822917223E-01  0.000000000E+00 -0.000000000E+00 -2.379010988E-09  2.379011210E-09  0.000000000E+00  0.000000000E+00  0.000000000E+00  1.321528886E-09  1.367372647E-02  5.824174285E-01 
        59  6.093750000E-01  0.000000000E+00 -0.000000000E+00 -2.427615220E-09  2.427615220E-09  0.000000000E+00  0.000000000E+00  0.000000000E+00  1.580190423E-09  1.367285941E-02  6.095010042E-01 
        60  6.364582777E-01  0.000000000E+00 -0.000000000E+00 -2.457632986E-09  2.457632986E-09  0.000000000E+00  0.000000000E+00  0.000000000E+00  1.845574915E-09  1.367199887E-02  6.365840435E-01 
        61  6.635416746E-01  0.000000000E+00 -0.000000000E+00 -2.468902860E-09  2.468902860E-09  0.000000000E+00  0.000000000E+00  0.000000000E+00  2.115143616E-09  1.367070153E-02  6.636675596E-01 
        62  6.906249523E-01  0.000000000E+00 -0.000000000E+00 -2.459756177E-09  2.459756177E-09  0.000000000E+00  0.000000000E+00  0.000000000E+00  2.385960762E-09  1.367026847E-02  6.907510161E-01 
        63  7.177083492E-01  0.000000000E+00 -0.000000000E+00 -2.431365109E-09  2.431365109E-09  0.000000000E+00  0.000000000E+00  0.000000000E+00  2.655508702E-09  1.366983727E-02  7.178342342E-01 
        64  7.447916269E-01  0.000000000E+00 -4.003207990E-18 -2.383061526E-09  2.383061304E-09  0.000000000E+00  0.000000000E+00  0.000000000E+00  2.920725661E-09  1.366918907E-02  7.449176311E-01 
        65  7.718750238E-01  0.000000000E+00 -0.000000000E+00 -2.315022840E-09  2.315022618E-09  0.000000000E+00  0.000000000E+00  0.000000000E+00  3.178513230E-09  1.366897207E-02  7.720010281E-01 
        66  7.989583015E-01  0.000000000E+00 -0.000000000E+00 -2.227726226E-09  2.227726226E-09  0.000000000E+00  0.000000000E+00  0.000000000E+00  3.425863815E-09  1.366875693E-02  7.990843058E-01 
        67  8.260416985E-01  0.000000000E+00 -0.000000000E+00 -2.121842257E-09  2.121842257E-09  0.000000000E+00  0.000000000E+00  0.000000000E+00  3.659679892E-09  1.366843283E-02  8.261676431E-01 
        68  8.531249762E-01  0.000000000E+00 -0.000000000E+00 -1.998383459E-09  1.998383459E-09  0.000000000E+00  0.000000000E+00  0.000000000E+00  3.876892585E-09  1.366832480E-02  8.532510400E-01 
        69  8.802083731E-01  0.000000000E+00 -0.000000000E+00 -1.858700971E-09  1.858700971E-09  0.000000000E+00  0.000000000E+00  0.000000000E+00  4.074532711E-09  1.366821676E-02  8.803343177E-01 
        70  9.072916508E-01  0.000000000E+00 -0.000000000E+00 -1.704617891E-09  1.704617891E-09  0.000000000E+00  0.000000000E+00  0.000000000E+00  4.249760543E-09  1.366805471E-02  9.074176550E-01 
        71  9.343750477E-01  0.000000000E+00 -0.000000000E+00 -1.538246974E-09  1.538246974E-09  0.000000000E+00  0.000000000E+00  0.000000000E+00  4.400080300E-09  1.366800070E-02  9.345009923E-01 
        72  9.614583254E-01  0.000000000E+00 -0.000000000E+00 -1.362406854E-09  1.362406854E-09  0.000000000E+00  0.000000000E+00  0.000000000E+00  4.522979324E-09  1.366794668E-02  9.615843296E-01 
        73  9.885416627E-01  0.000000000E+00 -0.000000000E+00 -1.179943365E-09  1.179943365E-09  0.000000000E+00  0.000000000E+00  0.000000000E+00  4.617146221E-09  1.366786566E-02  9.886676669E-01 
        74  1.015625000E+00  0.000000000E+00 -1.601283196E-17 -9.968199599E-10  9.968199599E-10  0.000000000E+00  0.000000000E+00  0.000000000E+00  4.681848687E-09  1.366783865E-02  1.015751004E+00 
        75  1.042708397E+00  0.000000000E+00 -0.000000000E+00 -8.110558336E-10  8.110558336E-10  0.000000000E+00  0.000000000E+00  0.000000000E+00  4.718117452E-09  1.366781164E-02  1.042834282E+00 
        76  1.069791675E+00  0.000000000E+00 -0.000000000E+00 -6.340236114E-10  6.340236114E-10  0.000000000E+00  0.000000000E+00  0.000000000E+00  4.722215952E-09  1.366777066E-02  1.069917679E+00 
        77  1.096874952E+00  0.000000000E+00 -0.000000000E+00 -4.648733343E-10  4.648733343E-10  0.000000000E+00  0.000000000E+00  0.000000000E+00  4.694993727E-09  1.366775762E-02  1.097000957E+00 
        78  1.123958349E+00  0.000000000E+00 -0.000000000E+00 -3.160369189E-10  3.160369189E-10  0.000000000E+00  0.000000000E+00  0.000000000E+00  4.644600260E-09  1.366774365E-02  1.124084353E+00 
        79  1.151041746E+00  0.000000000E+00 -0.000000000E+00 -1.865455984E-10  1.865455984E-10  0.000000000E+00  0.000000000E+00  0.000000000E+00  4.574267631E-09  1.369257551E-02  1.151159406E+00 
        80  1.178125024E+00  0.000000000E+00 -0.000000000E+00 -8.534999096E-11  8.534999096E-11  0.000000000E+00  0.000000000E+00  0.000000000E+00  4.490062544E-09  1.373006683E-02  1.178213954E+00 
        81  1.205208302E+00  0.000000000E+00 -0.000000000E+00 -1.521406959E-11  1.521406959E-11  0.000000000E+00  0.000000000E+00  0.000000000E+00  4.406003562E-09  1.375491265E-02  1.205288887E+00 
        82  1.232291698E+00  0.000000000E+00 -0.000000000E+00  2.320909784E-11  2.320909957E-11  0.000000000E+00  0.000000000E+00  0.000000000E+00  4.326859315E-09  1.381210610E-02  1.232338428E+00 
        83  1.259374976E+00  0.000000000E+00 -0.000000000E+00  2.765585677E-11  2.765585504E-11  0.000000000E+00  0.000000000E+00  0.000000000E+00  4.264648634E-09  1.384064648E-02  1.259400964E+00 
        84  1.286458254E+00  0.000000000E+00 -0.000000000E+00  2.734124992E-12  2.734124992E-12  0.000000000E+00  0.000000000E+00  0.000000000E+00  4.237246998E-09  1.386034861E-02  1.286479115E+00 
        85  1.299999952E+00  1.388888899E-02  3.486165349E-12 -0.000000000E+00  3.486165566E-12  0.000000000E+00  0.000000000E+00  0.000000000E+00  4.237246998E-09  1.386034861E-02  1.286479115E+00 
        86  1.299999952E+00  4.166666791E-02  2.820317591E-11 -4.878909776E-19  2.820317591E-11  0.000000000E+00  0.000000000E+00  0.000000000E+00  4.207639126E-09  4.161842540E-02  1.286484241E+00 
        87  1.299999952E+00  6.944444776E-02  2.302392998E-11 -0.000000000E+00  2.302392998E-11  0.000000000E+00  0.000000000E+00  0.000000000E+00  4.141457399E-09  6.936768442E-02  1.286505103E+00 
        88  1.299999952E+00  9.722222388E-02 -1.762260823E-11 -0.000000000E+00  1.762260823E-11  0.000000000E+00  0.000000000E+00  0.000000000E+00  4.057048919E-09  9.709909558E-02  1.286507249E+00 
        89  1.299999952E+00  1.250000000E-01 -9.161740810E-11 -0.000000000E+00  9.161740810E-11  0.000000000E+00  0.000000000E+00  0.000000000E+00  3.965912043E-09  1.248411611E-01  1.286484241E+00 
        90  1.299999952E+00  1.527777910E-01 -1.986145831E-10 -0.000000000E+00  1.986145692E-10  0.000000000E+00  0.000000000E+00  0.000000000E+00  3.872395737E-09  1.525923312E-01  1.286481380E+00 
        91  1.299999952E+00  1.805555522E-01 -3.379451996E-10 -0.000000000E+00  3.379451996E-10  0.000000000E+00  0.000000000E+00  0.000000000E+00  3.789994096E-09  1.803397387E-01  1.286442518E+00 
        92  1.299999952E+00  2.083333433E-01 -5.045070472E-10 -0.000000000E+00  5.045070472E-10  0.000000000E+00  0.000000000E+00  0.000000000E+00  3.723998887E-09  2.081121355E-01  1.286426783E+00 
        93  1.299999952E+00  2.361111045E-01 -6.941712760E-10 -0.000000000E+00  6.941712760E-10  0.000000000E+00  0.000000000E+00  0.000000000E+00  3.678182647E-09  2.358952761E-01  1.286410928E+00 
        94  1.299999952E+00  2.638888955E-01 -9.123571898E-10 -0.000000000E+00  9.123571898E-10  0.000000000E+00  0.000000000E+00  0.000000000E+00  3.655250325E-09  2.636703551E-01  1.286387324E+00 
        95  1.299999952E+00  2.916666865E-01 -1.151222562E-09 -0.000000000E+00  1.151222673E-09  0.000000000E+00  0.000000000E+00  0.000000000E+00  3.666758897E-09  2.914454639E-01  1.286379576E+00 
        96  1.299999952E+00  3.194444478E-01 -1.412736150E-09 -0.000000000E+00  1.412736150E-09  0.000000000E+00  0.000000000E+00  0.000000000E+00  3.712576468E-09  3.192259073E-01  1.286371589E+00 
        97  1.299999952E+00  3.472222090E-01 -1.691724871E-09 -0.000000000E+00  1.691724871E-09  0.000000000E+00  0.000000000E+00  0.000000000E+00  3.790314729E-09  3.470023572E-01  1.286359787E+00 
        98  1.299999952E+00  3.750000000E-01 -1.995458687E-09 -0.000000000E+00  1.995458687E-09  0.000000000E+00  0.000000000E+00  0.000000000E+00  3.906061696E-09  3.747788072E-01  1.286355972E+00 
        99  1.299999952E+00  4.027777910E-01 -2.321931980E-09 -0.000000000E+00  2.321931980E-09  0.000000000E+00  0.000000000E+00  0.000000000E+00  4.063924308E-09  4.025579095E-01  1.286351919E+00 
