cellnumber     x-coordinate     y-coordinate     y-wall-shear     x-wall-shear       wall-shear velocity-magnitude       y-velocity       x-velocity         pressure     y-coordinate     x-coordinate 
         1  9.327022831E-16  9.871795177E-01  1.512939320E-06 -0.000000000E+00  1.512939320E-06  0.000000000E+00  0.000000000E+00  0.000000000E+00 -2.224705440E-06  9.872229099E-01  1.219300274E-02 
         2  8.540176868E-16  9.615384340E-01  5.352086418E-07 -8.659739592E-15  5.352086418E-07  0.000000000E+00  0.000000000E+00  0.000000000E+00 -1.250212108E-06  9.616132975E-01  1.218760852E-02 
         3  8.312439355E-16  9.358974695E-01  3.997663782E-07 -0.000000000E+00  3.997663782E-07  0.000000000E+00  0.000000000E+00  0.000000000E+00 -7.008928264E-07  9.360156059E-01  1.215838827E-02 
         4  8.084700783E-16  9.102563858E-01  2.843796381E-07 -0.000000000E+00  2.843796381E-07  0.000000000E+00  0.000000000E+00  0.000000000E+00 -4.719002789E-07  9.104097486E-01  1.217584498E-02 
         5  7.856963269E-16  8.846154213E-01  2.125479597E-07 -0.000000000E+00  2.125479455E-07  0.000000000E+00  0.000000000E+00  0.000000000E+00 -3.563410758E-07  8.847913742E-01  1.220678724E-02 
         6  7.629224697E-16  8.589743376E-01  1.663476610E-07 -0.000000000E+00  1.663476610E-07  0.000000000E+00  0.000000000E+00  0.000000000E+00 -2.850789542E-07  8.591540456E-01  1.222963724E-02 
         7  7.401487184E-16  8.333333731E-01  1.359630772E-07 -0.000000000E+00  1.359630772E-07  0.000000000E+00  0.000000000E+00  0.000000000E+00 -2.408756643E-07  8.335400820E-01  1.226854883E-02 
         8  7.173748612E-16  8.076922894E-01  1.163511456E-07 -0.000000000E+00  1.163511385E-07  0.000000000E+00  0.000000000E+00  0.000000000E+00 -2.105905708E-07  8.079108000E-01  1.228155475E-02 
         9  6.946011098E-16  7.820513248E-01  1.032578822E-07 -0.000000000E+00  1.032578822E-07  0.000000000E+00  0.000000000E+00  0.000000000E+00 -1.881169851E-07  7.822741866E-01  1.228952408E-02 
        10  6.718272526E-16  7.564102411E-01  9.439675352E-08 -0.000000000E+00  9.439675352E-08  0.000000000E+00  0.000000000E+00  0.000000000E+00 -1.699891214E-07  7.566472888E-01  1.231461950E-02 
        11  6.490535013E-16  7.307692766E-01  8.818079067E-08 -0.000000000E+00  8.818079067E-08  0.000000000E+00  0.000000000E+00  0.000000000E+00 -1.543900936E-07  7.310187221E-01  1.233126502E-02 
        12  6.262796441E-16  7.051281929E-01  8.360049009E-08 -0.000000000E+00  8.360049009E-08  0.000000000E+00  0.000000000E+00  0.000000000E+00 -1.402557643E-07  7.053800821E-01  1.234335452E-02 
        13  6.035058927E-16  6.794872284E-01  7.998692553E-08 -0.000000000E+00  7.998692553E-08  0.000000000E+00  0.000000000E+00  0.000000000E+00 -1.270475281E-07  6.797527075E-01  1.236444712E-02 
        14  5.807320355E-16  6.538461447E-01  7.689132531E-08 -0.000000000E+00  7.689132531E-08  0.000000000E+00  0.000000000E+00  0.000000000E+00 -1.144178086E-07  6.541167498E-01  1.237084065E-02 
        15  5.579582842E-16  6.282051802E-01  7.400407043E-08 -0.000000000E+00  7.400407043E-08  0.000000000E+00  0.000000000E+00  0.000000000E+00 -1.022257976E-07  6.284769773E-01  1.237528957E-02 
        16  5.351844270E-16  6.025640965E-01  7.114161349E-08 -0.000000000E+00  7.114161349E-08  0.000000000E+00  0.000000000E+00  0.000000000E+00 -9.041777815E-08  6.028419137E-01  1.238240674E-02 
        17  5.124106756E-16  5.769231319E-01  6.816171805E-08 -0.000000000E+00  6.816171805E-08  0.000000000E+00  0.000000000E+00  0.000000000E+00 -7.898394472E-08  5.772025585E-01  1.238395181E-02 
        18  4.896368184E-16  5.512820482E-01  6.497401017E-08 -0.000000000E+00  6.497401017E-08  0.000000000E+00  0.000000000E+00  0.000000000E+00 -6.796774699E-08  5.515624285E-01  1.238467637E-02 
        19  4.668630671E-16  5.256410837E-01  6.152769316E-08 -0.000000000E+00  6.152769316E-08  0.000000000E+00  0.000000000E+00  0.000000000E+00 -5.744029608E-08  5.259208679E-01  1.238879375E-02 
        20  4.440892099E-16  5.000000000E-01  5.781018331E-08 -0.000000000E+00  5.781018331E-08  0.000000000E+00  0.000000000E+00  0.000000000E+00 -4.748805082E-08  5.002790093E-01  1.239034720E-02 
        21  4.213154056E-16  4.743589759E-01  5.382969803E-08 -0.000000000E+00  5.382969803E-08  0.000000000E+00  0.000000000E+00  0.000000000E+00 -3.819937788E-08  4.746357501E-01  1.239291858E-02 
        22  3.985416013E-16  4.487179518E-01  4.960859812E-08 -0.000000000E+00  4.960860167E-08  0.000000000E+00  0.000000000E+00  0.000000000E+00 -2.965514589E-08  4.489818513E-01  1.240013726E-02 
        23  3.757677970E-16  4.230769277E-01  4.520458319E-08 -0.000000000E+00  4.520458674E-08  0.000000000E+00  0.000000000E+00  0.000000000E+00 -2.194483351E-08  4.233300090E-01  1.239841525E-02 
        24  3.529939927E-16  3.974359035E-01  4.065939407E-08 -0.000000000E+00  4.065939407E-08  0.000000000E+00  0.000000000E+00  0.000000000E+00 -1.511877734E-08  3.976769447E-01  1.240408048E-02 
        25  3.302201885E-16  3.717948794E-01  3.605872578E-08 -0.000000000E+00  3.605872578E-08  0.000000000E+00  0.000000000E+00  0.000000000E+00 -9.237980159E-09  3.720420897E-01  1.239480730E-02 
        26  3.074463842E-16  3.461538553E-01  3.144892702E-08 -0.000000000E+00  3.144892702E-08  0.000000000E+00  0.000000000E+00  0.000000000E+00 -4.303360779E-09  3.464167118E-01  1.239781547E-02 
        27  2.846725799E-16  3.205128312E-01  2.691600365E-08 -0.000000000E+00  2.691600365E-08  0.000000000E+00  0.000000000E+00  0.000000000E+00 -3.300412998E-10  3.207926452E-01  1.239026338E-02 
        28  2.618987756E-16  2.948718071E-01  2.252201448E-08 -0.000000000E+00  2.252201448E-08  0.000000000E+00  0.000000000E+00  0.000000000E+00  2.714792835E-09  2.951543927E-01  1.239590906E-02 
        29  2.391249714E-16  2.692307830E-01  1.834477992E-08 -2.706168623E-16  1.834477992E-08  0.000000000E+00  0.000000000E+00  0.000000000E+00  4.862436676E-09  2.694991231E-01  1.238984242E-02 
        30  2.163511671E-16  2.435897589E-01  1.451068776E-08 -0.000000000E+00  1.451068865E-08  0.000000000E+00  0.000000000E+00  0.000000000E+00  6.199123881E-09  2.438452244E-01  1.239247900E-02 
        31  1.935773496E-16  2.179487199E-01  1.088955237E-08 -0.000000000E+00  1.088955148E-08  0.000000000E+00  0.000000000E+00  0.000000000E+00  6.837241440E-09  2.181829363E-01  1.238078251E-02 
        32  1.708035453E-16  1.923076957E-01  7.791217449E-09 -0.000000000E+00  7.791217449E-09  0.000000000E+00  0.000000000E+00  0.000000000E+00  6.733997360E-09  1.925286651E-01  1.236873865E-02 
        33  1.480297410E-16  1.666666716E-01  5.071759901E-09  2.706168623E-16  5.071759901E-09  0.000000000E+00  0.000000000E+00  0.000000000E+00  6.061700475E-09  1.668806225E-01  1.236310974E-02 
        34  1.252559368E-16  1.410256475E-01  2.927586396E-09 -0.000000000E+00  2.927586396E-09  0.000000000E+00  0.000000000E+00  0.000000000E+00  5.058116592E-09  1.411977708E-01  1.234778203E-02 
        35  1.024821325E-16  1.153846234E-01  1.289907292E-09 -0.000000000E+00  1.289907292E-09  0.000000000E+00  0.000000000E+00  0.000000000E+00  3.793466430E-09  1.155181900E-01  1.232313178E-02 
        36  7.970832158E-17  8.974359185E-02  2.116164605E-10 -0.000000000E+00  2.116164605E-10  0.000000000E+00  0.000000000E+00  0.000000000E+00  2.530907928E-09  8.984853327E-02  1.231984887E-02 
        37  5.693451731E-17  6.410256773E-02 -3.646698221E-10 -0.000000000E+00  3.646698221E-10  0.000000000E+00  0.000000000E+00  0.000000000E+00  1.345557221E-09  6.415876746E-02  1.228223462E-02 
        38  3.416070972E-17  3.846153989E-02 -4.066641468E-10 -0.000000000E+00  4.066641468E-10  0.000000000E+00  0.000000000E+00  0.000000000E+00  4.083146043E-10  3.849475831E-02  1.225871034E-02 
        39  1.138690297E-17  1.282051299E-02 -5.169807638E-11 -1.691355389E-17  5.169807984E-11  0.000000000E+00  0.000000000E+00  0.000000000E+00  0.000000000E+00  1.284349989E-02  1.224574726E-02 
        40  1.222222205E-02  0.000000000E+00 -1.774149055E-17  2.968254115E-11  2.968254115E-11  0.000000000E+00  0.000000000E+00  0.000000000E+00  0.000000000E+00  1.284349989E-02  1.224574726E-02 
        41  3.666666523E-02  0.000000000E+00 -0.000000000E+00  3.952487782E-10  3.952488059E-10  0.000000000E+00  0.000000000E+00  0.000000000E+00 -3.372284674E-10  1.285373326E-02  3.670315444E-02 
        42  6.111110747E-02  0.000000000E+00 -0.000000000E+00  3.899873480E-10  3.899873480E-10  0.000000000E+00  0.000000000E+00  0.000000000E+00 -1.188908638E-09  1.287672110E-02  6.117112935E-02 
        43  8.555555344E-02  0.000000000E+00 -0.000000000E+00 -2.990609843E-11  2.990609843E-11  0.000000000E+00  0.000000000E+00  0.000000000E+00 -2.244976871E-09  1.287855394E-02  8.564665914E-02 
        44  1.099999994E-01  0.000000000E+00 -0.000000000E+00 -8.140315089E-10  8.140315089E-10  0.000000000E+00  0.000000000E+00  0.000000000E+00 -3.456842590E-09  1.285370532E-02  1.101196334E-01 
        45  1.344444454E-01  0.000000000E+00 -0.000000000E+00 -1.969241215E-09  1.969241215E-09  0.000000000E+00  0.000000000E+00  0.000000000E+00 -4.718682334E-09  1.284530479E-02  1.345822215E-01 
        46  1.588888764E-01  0.000000000E+00 -0.000000000E+00 -3.431618767E-09  3.431618767E-09  0.000000000E+00  0.000000000E+00  0.000000000E+00 -5.912608625E-09  1.278808434E-02  1.590282470E-01 
        47  1.833333373E-01  0.000000000E+00 -0.000000000E+00 -5.145690984E-09  5.145690540E-09  0.000000000E+00  0.000000000E+00  0.000000000E+00 -6.975337197E-09  1.276845206E-02  1.834624708E-01 
        48  2.077777684E-01  0.000000000E+00 -0.000000000E+00 -7.057967544E-09  7.057967544E-09  0.000000000E+00  0.000000000E+00  0.000000000E+00 -7.860328388E-09  1.273608115E-02  2.078799754E-01 
        49  2.322222292E-01  0.000000000E+00 -0.000000000E+00 -9.124379474E-09  9.124379474E-09  0.000000000E+00  0.000000000E+00  0.000000000E+00 -8.555717912E-09  1.269343123E-02  2.323081493E-01 
        50  2.566666603E-01  0.000000000E+00 -0.000000000E+00 -1.127658056E-08  1.127658145E-08  0.000000000E+00  0.000000000E+00  0.000000000E+00 -9.042475213E-09  1.266921498E-02  2.567616999E-01 
        51  2.811111212E-01  0.000000000E+00 -0.000000000E+00 -1.360066548E-08  1.360066459E-08  0.000000000E+00  0.000000000E+00  0.000000000E+00 -9.326930339E-09  1.264619734E-02  2.812000513E-01 
        52  3.055555522E-01  0.000000000E+00 -1.419319244E-16 -1.596262500E-08  1.596262500E-08  0.000000000E+00  0.000000000E+00  0.000000000E+00 -9.275533230E-09  1.260924153E-02  3.056490123E-01 
        53  3.299999833E-01  0.000000000E+00 -2.838638487E-16 -1.838688846E-08  1.838688846E-08  0.000000000E+00  0.000000000E+00  0.000000000E+00 -8.886618552E-09  1.259679347E-02  3.300969899E-01 
        54  3.544444442E-01  0.000000000E+00 -0.000000000E+00 -2.074232697E-08  2.074232519E-08  0.000000000E+00  0.000000000E+00  0.000000000E+00 -8.235534033E-09  1.258405391E-02  3.545368314E-01 
        55  3.788889050E-01  0.000000000E+00 -0.000000000E+00 -2.312525460E-08  2.312525460E-08  0.000000000E+00  0.000000000E+00  0.000000000E+00 -7.273019520E-09  1.253870502E-02  3.789897263E-01 
        56  4.033333361E-01  0.000000000E+00 -0.000000000E+00 -2.544306987E-08  2.544306987E-08  0.000000000E+00  0.000000000E+00  0.000000000E+00 -5.949959192E-09  1.249349210E-02  4.034643769E-01 
        57  4.277777672E-01  0.000000000E+00 -1.419319244E-16 -2.766656415E-08  2.766656415E-08  0.000000000E+00  0.000000000E+00  0.000000000E+00 -4.254444796E-09  1.246059220E-02  4.279136956E-01 
        58  4.522222281E-01  0.000000000E+00 -0.000000000E+00 -2.973196978E-08  2.973196978E-08  0.000000000E+00  0.000000000E+00  0.000000000E+00 -2.154489698E-09  1.241201907E-02  4.523873031E-01 
        59  4.766666889E-01  0.000000000E+00 -0.000000000E+00 -3.158199391E-08  3.158199391E-08  0.000000000E+00  0.000000000E+00  0.000000000E+00  3.395188020E-10  1.240862813E-02  4.768328369E-01 
        60  5.011110902E-01  0.000000000E+00 -0.000000000E+00 -3.316405994E-08  3.316405994E-08  0.000000000E+00  0.000000000E+00  0.000000000E+00  3.209708055E-09  1.240526699E-02  5.012761950E-01 
        61  5.255555511E-01  0.000000000E+00  7.096596219E-17 -3.441926211E-08  3.441926211E-08  0.000000000E+00  0.000000000E+00  0.000000000E+00  6.435792343E-09  1.240019593E-02  5.257211924E-01 
        62  5.500000119E-01  0.000000000E+00 -0.000000000E+00 -3.529463299E-08  3.529463299E-08  0.000000000E+00  0.000000000E+00  0.000000000E+00  9.969362225E-09  1.239850093E-02  5.501661897E-01 
        63  5.744444132E-01  0.000000000E+00 -0.000000000E+00 -3.574175622E-08  3.574175622E-08  0.000000000E+00  0.000000000E+00  0.000000000E+00  1.375973113E-08  1.239682082E-02  5.746100545E-01 
        64  5.988888741E-01  0.000000000E+00 -3.548298109E-17 -3.568631612E-08  3.568631612E-08  0.000000000E+00  0.000000000E+00  0.000000000E+00  1.771904579E-08  1.239428483E-02  5.990547538E-01 
        65  6.233333349E-01  0.000000000E+00 -0.000000000E+00 -3.513253688E-08  3.513253688E-08  0.000000000E+00  0.000000000E+00  0.000000000E+00  2.174619418E-08  1.239343733E-02  6.234995127E-01 
        66  6.477777958E-01  0.000000000E+00 -0.000000000E+00 -3.405440552E-08  3.405440552E-08  0.000000000E+00  0.000000000E+00  0.000000000E+00  2.572907398E-08  1.239259727E-02  6.479436755E-01 
        67  6.722222567E-01  0.000000000E+00 -0.000000000E+00 -3.245449420E-08  3.245449420E-08  0.000000000E+00  0.000000000E+00  0.000000000E+00  2.954433320E-08  1.239132974E-02  6.723882556E-01 
        68  6.966666579E-01  0.000000000E+00 -0.000000000E+00 -3.036332785E-08  3.036332785E-08  0.000000000E+00  0.000000000E+00  0.000000000E+00  3.307063423E-08  1.239090599E-02  6.968328357E-01 
        69  7.211111188E-01  0.000000000E+00 -0.000000000E+00 -2.782384989E-08  2.782384989E-08  0.000000000E+00  0.000000000E+00  0.000000000E+00  3.619011579E-08  1.239048503E-02  7.212771177E-01 
        70  7.455555201E-01  0.000000000E+00 -0.000000000E+00 -2.491608697E-08  2.491608697E-08  0.000000000E+00  0.000000000E+00  0.000000000E+00  3.878155752E-08  1.241100114E-02  7.457131743E-01 
        71  7.699999809E-01  0.000000000E+00 -0.000000000E+00 -2.171118041E-08  2.171118041E-08  0.000000000E+00  0.000000000E+00  0.000000000E+00  4.077428173E-08  1.244388521E-02  7.701314688E-01 
        72  7.944444418E-01  0.000000000E+00 -0.000000000E+00 -1.842121655E-08  1.842121655E-08  0.000000000E+00  0.000000000E+00  0.000000000E+00  4.211542048E-08  1.246482506E-02  7.945673466E-01 
        73  8.188889027E-01  0.000000000E+00 -0.000000000E+00 -1.491491908E-08  1.491491908E-08  0.000000000E+00  0.000000000E+00  0.000000000E+00  4.285012523E-08  1.250436995E-02  8.189894557E-01 
        74  8.433333635E-01  0.000000000E+00 -0.000000000E+00 -1.161927532E-08  1.161927532E-08  0.000000000E+00  0.000000000E+00  0.000000000E+00  4.281879740E-08  1.250984892E-02  8.434336782E-01 
        75  8.677777648E-01  0.000000000E+00 -0.000000000E+00 -8.383922889E-09  8.383922889E-09  0.000000000E+00  0.000000000E+00  0.000000000E+00  4.207898385E-08  1.251650974E-02  8.678818941E-01 
        76  8.922222257E-01  0.000000000E+00 -0.000000000E+00 -5.599807729E-09  5.599807729E-09  0.000000000E+00  0.000000000E+00  0.000000000E+00  4.086476224E-08  1.251901407E-02  8.923249245E-01 
        77  9.166666865E-01  0.000000000E+00 -0.000000000E+00 -3.164505546E-09  3.164505546E-09  0.000000000E+00  0.000000000E+00  0.000000000E+00  3.922784586E-08  1.251618750E-02  9.167701006E-01 
        78  9.411110878E-01  0.000000000E+00 -0.000000000E+00 -1.233716240E-09  1.233716240E-09  0.000000000E+00  0.000000000E+00  0.000000000E+00  3.733850562E-08  1.251321100E-02  9.412133098E-01 
        79  9.655555487E-01  0.000000000E+00 -0.000000000E+00  1.781493425E-10  1.781493425E-10  0.000000000E+00  0.000000000E+00  0.000000000E+00  3.532946025E-08  1.253751945E-02  9.656588435E-01 
        80  9.900000095E-01  0.000000000E+00 -0.000000000E+00  9.752333385E-10  9.752333385E-10  0.000000000E+00  0.000000000E+00  0.000000000E+00  3.333004983E-08  1.257127337E-02  9.900838733E-01 
        81  1.014444351E+00  0.000000000E+00 -0.000000000E+00  1.304925057E-09  1.304925057E-09  0.000000000E+00  0.000000000E+00  0.000000000E+00  3.167065188E-08  1.259840839E-02  1.014528632E+00 
        82  1.038888931E+00  0.000000000E+00 -1.774149055E-17  1.102177238E-09  1.102177238E-09  0.000000000E+00  0.000000000E+00  0.000000000E+00  3.027613715E-08  1.267363038E-02  1.038952589E+00 
        83  1.063333273E+00  0.000000000E+00 -0.000000000E+00  6.131043451E-10  6.131043451E-10  0.000000000E+00  0.000000000E+00  0.000000000E+00  2.959418843E-08  1.272633765E-02  1.063365817E+00 
        84  1.087777853E+00  0.000000000E+00 -0.000000000E+00  2.502881236E-11  2.502881236E-11  0.000000000E+00  0.000000000E+00  0.000000000E+00  2.926653764E-08  1.276780572E-02  1.087808967E+00 
        85  1.100000024E+00  1.282051299E-02  5.555181315E-11 -0.000000000E+00  5.555181662E-11  0.000000000E+00  0.000000000E+00  0.000000000E+00  2.926653764E-08  1.276780572E-02  1.087808967E+00 
        86  1.100000024E+00  3.846153989E-02  6.610194059E-10 -0.000000000E+00  6.610194059E-10  0.000000000E+00  0.000000000E+00  0.000000000E+00  2.888910977E-08  3.836736456E-02  1.087810159E+00 
        87  1.100000024E+00  6.410256773E-02  1.184167542E-09 -0.000000000E+00  1.184167542E-09  0.000000000E+00  0.000000000E+00  0.000000000E+00  2.809271749E-08  6.395578384E-02  1.087841392E+00 
        88  1.100000024E+00  8.974359185E-02  1.479072975E-09 -0.000000000E+00  1.479072975E-09  0.000000000E+00  0.000000000E+00  0.000000000E+00  2.656136111E-08  8.955289423E-02  1.087826252E+00 
        89  1.100000024E+00  1.153846234E-01  1.279800932E-09 -0.000000000E+00  1.279800932E-09  0.000000000E+00  0.000000000E+00  0.000000000E+00  2.454079429E-08  1.151780114E-01  1.087804198E+00 
        90  1.100000024E+00  1.410256475E-01  7.972509319E-10 -0.000000000E+00  7.972509319E-10  0.000000000E+00  0.000000000E+00  0.000000000E+00  2.217159434E-08  1.408166736E-01  1.087787867E+00 
        91  1.100000024E+00  1.666666716E-01 -1.817516276E-10 -6.765421556E-17  1.817516276E-10  0.000000000E+00  0.000000000E+00  0.000000000E+00  1.926660964E-08  1.664341986E-01  1.087747574E+00 
        92  1.100000024E+00  1.923076957E-01 -1.610247380E-09 -0.000000000E+00  1.610247380E-09  0.000000000E+00  0.000000000E+00  0.000000000E+00  1.627262236E-08  1.920512319E-01  1.087719440E+00 
        93  1.100000024E+00  2.179487199E-01 -3.396324555E-09 -0.000000000E+00  3.396324777E-09  0.000000000E+00  0.000000000E+00  0.000000000E+00  1.286579021E-08  2.176846266E-01  1.087701082E+00 
        94  1.100000024E+00  2.435897589E-01 -5.696821681E-09 -1.353084311E-16  5.696821237E-09  0.000000000E+00  0.000000000E+00  0.000000000E+00  9.179170313E-09  2.433050722E-01  1.087665677E+00 
        95  1.100000024E+00  2.692307830E-01 -8.499909221E-09 -0.000000000E+00  8.499909221E-09  0.000000000E+00  0.000000000E+00  0.000000000E+00  5.186631125E-09  2.689446807E-01  1.087659121E+00 
        96  1.100000024E+00  2.948718071E-01 -1.189290977E-08 -0.000000000E+00  1.189290977E-08  0.000000000E+00  0.000000000E+00  0.000000000E+00  8.973888854E-10  2.945891023E-01  1.087651730E+00 
        97  1.100000024E+00  3.205128312E-01 -1.596053067E-08 -0.000000000E+00  1.596053067E-08  0.000000000E+00  0.000000000E+00  0.000000000E+00 -3.682810279E-09  3.202283680E-01  1.087641597E+00 
        98  1.100000024E+00  3.461538553E-01 -2.081418771E-08 -0.000000000E+00  2.081418771E-08  0.000000000E+00  0.000000000E+00  0.000000000E+00 -8.532011542E-09  3.458661437E-01  1.087636828E+00 
        99  1.100000024E+00  3.717948794E-01 -2.657709963E-08 -0.000000000E+00  2.657709963E-08  0.000000000E+00  0.000000000E+00  0.000000000E+00 -1.359484880E-08  3.715068102E-01  1.087633252E+00 
