cellnumber     x-coordinate     y-coordinate     y-wall-shear     x-wall-shear       wall-shear velocity-magnitude       y-velocity       x-velocity         pressure     y-coordinate     x-coordinate 
         1  1.145947910E-15  9.848484993E-01  5.978937452E-07 -0.000000000E+00  5.978937452E-07  0.000000000E+00  0.000000000E+00  0.000000000E+00 -9.286513318E-07  9.848644137E-01  1.468407363E-02 
         2  1.271710068E-15  9.545454979E-01  2.310250551E-07 -0.000000000E+00  2.310250551E-07  0.000000000E+00  0.000000000E+00  0.000000000E+00 -5.247054560E-07  9.545643926E-01  1.466838084E-02 
         3  1.231338254E-15  9.242424369E-01  1.806474614E-07 -0.000000000E+00  1.806474472E-07  0.000000000E+00  0.000000000E+00  0.000000000E+00 -2.938084833E-07  9.242773056E-01  1.464657299E-02 
         4  1.190966546E-15  8.939393759E-01  1.329170516E-07 -0.000000000E+00  1.329170516E-07  0.000000000E+00  0.000000000E+00  0.000000000E+00 -1.908528304E-07  8.939579129E-01  1.466869842E-02 
         5  1.150594732E-15  8.636363745E-01  1.025958483E-07 -0.000000000E+00  1.025958483E-07  0.000000000E+00  0.000000000E+00  0.000000000E+00 -1.370879659E-07  8.636599183E-01  1.470180135E-02 
         6  1.110223025E-15  8.333333731E-01  8.192810697E-08 -0.000000000E+00  8.192810697E-08  0.000000000E+00  0.000000000E+00  0.000000000E+00 -1.015686095E-07  8.333376050E-01  1.473961957E-02 
         7  1.069851317E-15  8.030303121E-01  6.712429013E-08 -0.000000000E+00  6.712429013E-08  0.000000000E+00  0.000000000E+00  0.000000000E+00 -7.854752226E-08  8.030473590E-01  1.481709722E-02 
         8  1.029479503E-15  7.727272511E-01  5.671596170E-08 -0.000000000E+00  5.671596170E-08  0.000000000E+00  0.000000000E+00  0.000000000E+00 -6.231209682E-08  7.727881074E-01  1.487809885E-02 
         9  9.891077952E-16  7.424242496E-01  4.891392891E-08 -0.000000000E+00  4.891392891E-08  0.000000000E+00  0.000000000E+00  0.000000000E+00 -5.023174765E-08  7.424929738E-01  1.492247358E-02 
        10  9.487359815E-16  7.121212482E-01  4.291429079E-08 -0.000000000E+00  4.291429079E-08  0.000000000E+00  0.000000000E+00  0.000000000E+00 -4.079986482E-08  7.122339010E-01  1.498778444E-02 
        11  9.083642736E-16  6.818181872E-01  3.811010529E-08 -0.000000000E+00  3.811010174E-08  0.000000000E+00  0.000000000E+00  0.000000000E+00 -3.312360874E-08  6.819345355E-01  1.499339007E-02 
        12  8.679925658E-16  6.515151262E-01  3.410344362E-08 -0.000000000E+00  3.410344362E-08  0.000000000E+00  0.000000000E+00  0.000000000E+00 -2.672058663E-08  6.516318321E-01  1.499769930E-02 
        13  8.276208050E-16  6.212121248E-01  3.065493104E-08 -0.000000000E+00  3.065493104E-08  0.000000000E+00  0.000000000E+00  0.000000000E+00 -2.128477661E-08  6.213326454E-01  1.500545908E-02 
        14  7.872490442E-16  5.909091234E-01  2.759774809E-08 -0.000000000E+00  2.759774809E-08  0.000000000E+00  0.000000000E+00  0.000000000E+00 -1.661104498E-08  5.910314322E-01  1.500826236E-02 
        15  7.468773364E-16  5.606060624E-01  2.481578498E-08 -0.000000000E+00  2.481578498E-08  0.000000000E+00  0.000000000E+00  0.000000000E+00 -1.257234761E-08  5.607286096E-01  1.501041651E-02 
        16  7.065055226E-16  5.303030014E-01  2.223315931E-08 -0.000000000E+00  2.223315931E-08  0.000000000E+00  0.000000000E+00  0.000000000E+00 -9.086611463E-09  5.304274559E-01  1.501429733E-02 
        17  6.661338148E-16  5.000000000E-01  1.980054876E-08 -0.000000000E+00  1.980054876E-08  0.000000000E+00  0.000000000E+00  0.000000000E+00 -6.097520711E-09  5.001253486E-01  1.501569897E-02 
        18  6.257621069E-16  4.696969986E-01  1.748716549E-08 -0.000000000E+00  1.748716549E-08  0.000000000E+00  0.000000000E+00  0.000000000E+00 -3.567153017E-09  4.698224366E-01  1.501677558E-02 
        19  5.853902932E-16  4.393939376E-01  1.527782345E-08 -0.000000000E+00  1.527782345E-08  0.000000000E+00  0.000000000E+00  0.000000000E+00 -1.467688526E-09  4.395203590E-01  1.501871645E-02 
        20  5.450185854E-16  4.090909362E-01  1.316680454E-08 -0.000000000E+00  1.316680454E-08  0.000000000E+00  0.000000000E+00  0.000000000E+00  2.254530729E-10  4.092177749E-01  1.501941681E-02 
        21  5.046468246E-16  3.787878752E-01  1.115901238E-08 -1.144917494E-16  1.115901238E-08  0.000000000E+00  0.000000000E+00  0.000000000E+00  1.531007765E-09  3.789148033E-01  1.501995604E-02 
        22  4.642750638E-16  3.484848738E-01  9.259276901E-09 -0.000000000E+00  9.259277789E-09  0.000000000E+00  0.000000000E+00  0.000000000E+00  2.476649330E-09  3.486122489E-01  1.502092555E-02 
        23  4.239033559E-16  3.181818128E-01  7.511964384E-09 -0.000000000E+00  7.511964384E-09  0.000000000E+00  0.000000000E+00  0.000000000E+00  3.091556788E-09  3.183094561E-01  1.502127666E-02 
        24  3.835315951E-16  2.878788114E-01  5.850233631E-09 -0.000000000E+00  5.850233631E-09  0.000000000E+00  0.000000000E+00  0.000000000E+00  3.427522932E-09  2.880064547E-01  1.502154581E-02 
        25  3.431598343E-16  2.575757504E-01  4.390471098E-09 -0.000000000E+00  4.390471098E-09  0.000000000E+00  0.000000000E+00  0.000000000E+00  3.460187914E-09  2.577036619E-01  1.502203103E-02 
        26  3.027881000E-16  2.272727340E-01  3.061946252E-09 -0.000000000E+00  3.061946252E-09  0.000000000E+00  0.000000000E+00  0.000000000E+00  3.220086642E-09  2.274007350E-01  1.502220612E-02 
        27  2.624163657E-16  1.969697028E-01  1.988427645E-09 -0.000000000E+00  1.988427645E-09  0.000000000E+00  0.000000000E+00  0.000000000E+00  2.820333300E-09  1.970977187E-01  1.502234023E-02 
        28  2.220446049E-16  1.666666716E-01  1.096370106E-09 -0.000000000E+00  1.096370106E-09  0.000000000E+00  0.000000000E+00  0.000000000E+00  2.294527679E-09  1.667933762E-01  1.498348732E-02 
        29  1.816728706E-16  1.363636404E-01  4.363249761E-10 -0.000000000E+00  4.363249761E-10  0.000000000E+00  0.000000000E+00  0.000000000E+00  1.696505270E-09  1.364589036E-01  1.493377239E-02 
        30  1.413011098E-16  1.060606092E-01  1.316145370E-11 -0.000000000E+00  1.316145370E-11  0.000000000E+00  0.000000000E+00  0.000000000E+00  1.100425084E-09  1.061545238E-01  1.489474438E-02 
        31  1.009293689E-16  7.575757802E-02 -1.994112098E-10 -0.000000000E+00  1.994111959E-10  0.000000000E+00  0.000000000E+00  0.000000000E+00  5.857330732E-10  7.581625879E-02  1.481531188E-02 
        32  6.055762133E-17  4.545454681E-02 -1.931872717E-10 -0.000000000E+00  1.931872856E-10  0.000000000E+00  0.000000000E+00  0.000000000E+00  1.666239091E-10  4.548574984E-02  1.477545593E-02 
        33  2.018587378E-17  1.515151560E-02 -1.901067671E-11 -0.000000000E+00  1.901067671E-11  0.000000000E+00  0.000000000E+00  0.000000000E+00  0.000000000E+00  1.517904084E-02  1.474573929E-02 
        34  1.470588241E-02  0.000000000E+00 -0.000000000E+00  1.646450164E-11  1.646450164E-11  0.000000000E+00  0.000000000E+00  0.000000000E+00  0.000000000E+00  1.517904084E-02  1.474573929E-02 
        35  4.411764815E-02  0.000000000E+00 -0.000000000E+00  1.864582100E-10  1.864582100E-10  0.000000000E+00  0.000000000E+00  0.000000000E+00 -1.568431218E-10  1.518271957E-02  4.418722168E-02 
        36  7.352941483E-02  0.000000000E+00 -0.000000000E+00  2.036465163E-10  2.036465163E-10  0.000000000E+00  0.000000000E+00  0.000000000E+00 -5.346486587E-10  1.521024574E-02  7.363888621E-02 
        37  1.029411778E-01  0.000000000E+00 -0.000000000E+00  4.124048325E-11  4.124048325E-11  0.000000000E+00  0.000000000E+00  0.000000000E+00 -1.025399654E-09  1.521364506E-02  1.031199545E-01 
        38  1.323529482E-01  0.000000000E+00 -0.000000000E+00 -2.942603383E-10  2.942603383E-10  0.000000000E+00  0.000000000E+00  0.000000000E+00 -1.603080890E-09  1.518266834E-02  1.325810552E-01 
        39  1.617647111E-01  0.000000000E+00 -0.000000000E+00 -8.034561350E-10  8.034560794E-10  0.000000000E+00  0.000000000E+00  0.000000000E+00 -2.199901816E-09  1.518239081E-02  1.620325446E-01 
        40  1.911764741E-01  0.000000000E+00 -0.000000000E+00 -1.457663656E-09  1.457663656E-09  0.000000000E+00  0.000000000E+00  0.000000000E+00 -2.781900710E-09  1.513549685E-02  1.914883852E-01 
        41  2.205882370E-01  0.000000000E+00 -0.000000000E+00 -2.238154995E-09  2.238154995E-09  0.000000000E+00  0.000000000E+00  0.000000000E+00 -3.308037844E-09  1.511932351E-02  2.209053636E-01 
        42  2.500000000E-01  0.000000000E+00 -0.000000000E+00 -3.119803083E-09  3.119802860E-09  0.000000000E+00  0.000000000E+00  0.000000000E+00 -3.761289058E-09  1.510340627E-02  2.503119409E-01 
        43  2.794117928E-01  0.000000000E+00 -5.898059818E-17 -4.084609095E-09  4.084609539E-09  0.000000000E+00  0.000000000E+00  0.000000000E+00 -4.130777498E-09  1.507927291E-02  2.797263265E-01 
        44  3.088235259E-01  0.000000000E+00 -0.000000000E+00 -5.111402412E-09  5.111402412E-09  0.000000000E+00  0.000000000E+00  0.000000000E+00 -4.408843957E-09  1.507118717E-02  3.091407120E-01 
        45  3.382353187E-01  0.000000000E+00 -0.000000000E+00 -6.193828561E-09  6.193828561E-09  0.000000000E+00  0.000000000E+00  0.000000000E+00 -4.603213366E-09  1.506322715E-02  3.385498822E-01 
        46  3.676470518E-01  0.000000000E+00 -0.000000000E+00 -7.352723319E-09  7.352723319E-09  0.000000000E+00  0.000000000E+00  0.000000000E+00 -4.704510115E-09  1.505116187E-02  3.679629564E-01 
        47  3.970588446E-01  0.000000000E+00 -0.000000000E+00 -8.556719777E-09  8.556719777E-09  0.000000000E+00  0.000000000E+00  0.000000000E+00 -4.656737662E-09  1.504711900E-02  3.973760307E-01 
        48  4.264705777E-01  0.000000000E+00 -0.000000000E+00 -9.802581857E-09  9.802581857E-09  0.000000000E+00  0.000000000E+00  0.000000000E+00 -4.474219661E-09  1.504313853E-02  4.267865121E-01 
        49  4.558823705E-01  0.000000000E+00 -0.000000000E+00 -1.106612046E-08  1.106611958E-08  0.000000000E+00  0.000000000E+00  0.000000000E+00 -4.182896252E-09  1.503710542E-02  4.561989307E-01 
        50  4.852941036E-01  0.000000000E+00 -0.000000000E+00 -1.238399783E-08  1.238399783E-08  0.000000000E+00  0.000000000E+00  0.000000000E+00 -3.755396882E-09  1.503508445E-02  4.856113493E-01 
        51  5.147058964E-01  0.000000000E+00 -0.000000000E+00 -1.373607361E-08  1.373607361E-08  0.000000000E+00  0.000000000E+00  0.000000000E+00 -3.173056484E-09  1.503309421E-02  5.150224566E-01 
        52  5.441176891E-01  0.000000000E+00 -0.000000000E+00 -1.511734560E-08  1.511734560E-08  0.000000000E+00  0.000000000E+00  0.000000000E+00 -2.418648171E-09  1.503007766E-02  5.444345474E-01 
        53  5.735294223E-01  0.000000000E+00 -0.000000000E+00 -1.651860870E-08  1.651860870E-08  0.000000000E+00  0.000000000E+00  0.000000000E+00 -1.474092626E-09  1.502906717E-02  5.738466382E-01 
        54  6.029411554E-01  0.000000000E+00 -0.000000000E+00 -1.792990822E-08  1.792990645E-08  0.000000000E+00  0.000000000E+00  0.000000000E+00 -3.213656286E-10  1.502807159E-02  6.032580733E-01 
        55  6.323529482E-01  0.000000000E+00 -0.000000000E+00 -1.933763194E-08  1.933763194E-08  0.000000000E+00  0.000000000E+00  0.000000000E+00  1.057084975E-09  1.502656378E-02  6.326700449E-01 
        56  6.617647409E-01  0.000000000E+00 -1.179611964E-16 -2.072530236E-08  2.072530236E-08  0.000000000E+00  0.000000000E+00  0.000000000E+00  2.678490318E-09  1.502605900E-02  6.620819569E-01 
        57  6.911764741E-01  0.000000000E+00 -0.000000000E+00 -2.207288397E-08  2.207288397E-08  0.000000000E+00  0.000000000E+00  0.000000000E+00  4.557622724E-09  1.502556074E-02  6.914935708E-01 
        58  7.205882072E-01  0.000000000E+00 -0.000000000E+00 -2.335720062E-08  2.335720062E-08  0.000000000E+00  0.000000000E+00  0.000000000E+00  6.706319500E-09  1.502480730E-02  7.209054232E-01 
        59  7.500000000E-01  0.000000000E+00 -0.000000000E+00 -2.455149861E-08  2.455149861E-08  0.000000000E+00  0.000000000E+00  0.000000000E+00  9.131987611E-09  1.502455398E-02  7.503172159E-01 
        60  7.794117928E-01  0.000000000E+00 -0.000000000E+00 -2.562707024E-08  2.562707024E-08  0.000000000E+00  0.000000000E+00  0.000000000E+00  1.183561249E-08  1.502430532E-02  7.797289491E-01 
        61  8.088235259E-01  0.000000000E+00 -0.000000000E+00 -2.655181852E-08  2.655181675E-08  0.000000000E+00  0.000000000E+00  0.000000000E+00  1.481226253E-08  1.502392814E-02  8.091407418E-01 
        62  8.382352591E-01  0.000000000E+00 -0.000000000E+00 -2.729325921E-08  2.729325921E-08  0.000000000E+00  0.000000000E+00  0.000000000E+00  1.804746397E-08  1.502380241E-02  8.385525346E-01 
        63  8.676470518E-01  0.000000000E+00 -0.000000000E+00 -2.781969854E-08  2.781969854E-08  0.000000000E+00  0.000000000E+00  0.000000000E+00  2.151631584E-08  1.502367761E-02  8.679642677E-01 
        64  8.970588446E-01  0.000000000E+00 -0.000000000E+00 -2.809569466E-08  2.809569466E-08  0.000000000E+00  0.000000000E+00  0.000000000E+00  2.519090714E-08  1.502348948E-02  8.973760605E-01 
        65  9.264705777E-01  0.000000000E+00  1.474514955E-17 -2.807276189E-08  2.807276189E-08  0.000000000E+00  0.000000000E+00  0.000000000E+00  2.901036567E-08  1.502342615E-02  9.267878532E-01 
        66  9.558823109E-01  0.000000000E+00 -0.000000000E+00 -2.775453645E-08  2.775453645E-08  0.000000000E+00  0.000000000E+00  0.000000000E+00  3.292434414E-08  1.502336375E-02  9.561995864E-01 
        67  9.852941036E-01  0.000000000E+00 -0.000000000E+00 -2.710565106E-08  2.710565106E-08  0.000000000E+00  0.000000000E+00  0.000000000E+00  3.685945416E-08  1.502326969E-02  9.856113791E-01 
        68  1.014705896E+00  0.000000000E+00 -0.000000000E+00 -2.611835548E-08  2.611835370E-08  0.000000000E+00  0.000000000E+00  0.000000000E+00  4.073412185E-08  1.502323803E-02  1.015023112E+00 
        69  1.044117689E+00  0.000000000E+00 -0.000000000E+00 -2.478966366E-08  2.478966543E-08  0.000000000E+00  0.000000000E+00  0.000000000E+00  4.446572888E-08  1.502320636E-02  1.044434905E+00 
        70  1.073529482E+00  0.000000000E+00 -0.000000000E+00 -2.314312120E-08  2.314311942E-08  0.000000000E+00  0.000000000E+00  0.000000000E+00  4.795347408E-08  1.500612125E-02  1.073804021E+00 
        71  1.102941155E+00  0.000000000E+00 -0.000000000E+00 -2.119095832E-08  2.119095832E-08  0.000000000E+00  0.000000000E+00  0.000000000E+00  5.112762480E-08  1.501733158E-02  1.103175521E+00 
        72  1.132352948E+00  0.000000000E+00 -0.000000000E+00 -1.899185342E-08  1.899185165E-08  0.000000000E+00  0.000000000E+00  0.000000000E+00  5.389334845E-08  1.500027813E-02  1.132544756E+00 
        73  1.161764741E+00  0.000000000E+00 -0.000000000E+00 -1.659071103E-08  1.659071103E-08  0.000000000E+00  0.000000000E+00  0.000000000E+00  5.619306975E-08  1.501480024E-02  1.161910772E+00 
        74  1.191176414E+00  0.000000000E+00 -0.000000000E+00 -1.406397043E-08  1.406397043E-08  0.000000000E+00  0.000000000E+00  0.000000000E+00  5.796930935E-08  1.502306201E-02  1.191313505E+00 
        75  1.220588207E+00  0.000000000E+00 -0.000000000E+00 -1.151531759E-08  1.151531670E-08  0.000000000E+00  0.000000000E+00  0.000000000E+00  5.919645218E-08  1.502637472E-02  1.220719934E+00 
        76  1.250000000E+00  0.000000000E+00 -0.000000000E+00 -8.992741662E-09  8.992741662E-09  0.000000000E+00  0.000000000E+00  0.000000000E+00  5.990234087E-08  1.503955573E-02  1.250120997E+00 
        77  1.279411793E+00  0.000000000E+00 -0.000000000E+00 -6.619553350E-09  6.619553350E-09  0.000000000E+00  0.000000000E+00  0.000000000E+00  6.007370246E-08  1.504701097E-02  1.279527068E+00 
        78  1.308823586E+00  0.000000000E+00 -0.000000000E+00 -4.433786227E-09  4.433786227E-09  0.000000000E+00  0.000000000E+00  0.000000000E+00  5.971509864E-08  1.505193114E-02  1.308937192E+00 
        79  1.338235259E+00  0.000000000E+00  1.179611964E-16 -2.640116348E-09  2.640116348E-09  0.000000000E+00  0.000000000E+00  0.000000000E+00  5.900118083E-08  1.506696828E-02  1.338341951E+00 
        80  1.367647052E+00  0.000000000E+00 -0.000000000E+00 -1.222070556E-09  1.222070556E-09  0.000000000E+00  0.000000000E+00  0.000000000E+00  5.803942926E-08  1.507748477E-02  1.367746472E+00 
        81  1.397058845E+00  0.000000000E+00 -0.000000000E+00 -2.532853371E-10  2.532853371E-10  0.000000000E+00  0.000000000E+00  0.000000000E+00  5.701348371E-08  1.508506667E-02  1.397156954E+00 
        82  1.426470518E+00  0.000000000E+00 -0.000000000E+00  2.682712108E-10  2.682712108E-10  0.000000000E+00  0.000000000E+00  0.000000000E+00  5.603858355E-08  1.510174666E-02  1.426543355E+00 
        83  1.455882311E+00  0.000000000E+00 -0.000000000E+00  3.433786311E-10  3.433786311E-10  0.000000000E+00  0.000000000E+00  0.000000000E+00  5.526367630E-08  1.512354892E-02  1.455927849E+00 
        84  1.485294104E+00  0.000000000E+00 -1.474514955E-17  3.478480351E-11  3.478480351E-11  0.000000000E+00  0.000000000E+00  0.000000000E+00  5.491081367E-08  1.512971241E-02  1.485321403E+00 
        85  1.500000000E+00  1.515151560E-02  4.507759443E-11 -0.000000000E+00  4.507759443E-11  0.000000000E+00  0.000000000E+00  0.000000000E+00  5.491081367E-08  1.512971241E-02  1.485321403E+00 
        86  1.500000000E+00  4.545454681E-02  3.567093010E-10 -0.000000000E+00  3.567093287E-10  0.000000000E+00  0.000000000E+00  0.000000000E+00  5.453551211E-08  4.542657733E-02  1.485339642E+00 
        87  1.500000000E+00  7.575757802E-02  2.945382271E-10 -0.000000000E+00  2.945382271E-10  0.000000000E+00  0.000000000E+00  0.000000000E+00  5.368596945E-08  7.570779324E-02  1.485366821E+00 
        88  1.500000000E+00  1.060606092E-01 -1.985497877E-10 -0.000000000E+00  1.985497877E-10  0.000000000E+00  0.000000000E+00  0.000000000E+00  5.259889591E-08  1.059944257E-01  1.485368133E+00 
        89  1.500000000E+00  1.363636404E-01 -1.069705324E-09 -0.000000000E+00  1.069705324E-09  0.000000000E+00  0.000000000E+00  0.000000000E+00  5.141558646E-08  1.362714618E-01  1.485339642E+00 
        90  1.500000000E+00  1.666666716E-01 -2.302660951E-09 -0.000000000E+00  2.302660951E-09  0.000000000E+00  0.000000000E+00  0.000000000E+00  5.014236493E-08  1.665642411E-01  1.485322714E+00 
        91  1.500000000E+00  1.969697028E-01 -3.889140565E-09 -0.000000000E+00  3.889140565E-09  0.000000000E+00  0.000000000E+00  0.000000000E+00  4.893144023E-08  1.968548596E-01  1.485254288E+00 
        92  1.500000000E+00  2.272727340E-01 -5.781160439E-09 -0.000000000E+00  5.781160439E-09  0.000000000E+00  0.000000000E+00  0.000000000E+00  4.781452034E-08  2.271443158E-01  1.485214829E+00 
        93  1.500000000E+00  2.575757504E-01 -7.964415794E-09 -0.000000000E+00  7.964415794E-09  0.000000000E+00  0.000000000E+00  0.000000000E+00  4.682081212E-08  2.574608624E-01  1.485175014E+00 
        94  1.500000000E+00  2.878788114E-01 -1.045921660E-08 -0.000000000E+00  1.045921660E-08  0.000000000E+00  0.000000000E+00  0.000000000E+00  4.597935188E-08  2.877570987E-01  1.485115647E+00 
        95  1.500000000E+00  3.181818128E-01 -1.324240273E-08 -0.000000000E+00  1.324240273E-08  0.000000000E+00  0.000000000E+00  0.000000000E+00  4.530539144E-08  3.180534244E-01  1.485095859E+00 
        96  1.500000000E+00  3.484848738E-01 -1.642263570E-08 -0.000000000E+00  1.642263570E-08  0.000000000E+00  0.000000000E+00  0.000000000E+00  4.480469684E-08  3.483631611E-01  1.485075951E+00 
        97  1.500000000E+00  3.787878752E-01 -2.003596400E-08 -0.000000000E+00  2.003596400E-08  0.000000000E+00  0.000000000E+00  0.000000000E+00  4.461553260E-08  3.786628246E-01  1.485046268E+00 
        98  1.500000000E+00  4.090909362E-01 -2.411241518E-08 -0.000000000E+00  2.411241695E-08  0.000000000E+00  0.000000000E+00  0.000000000E+00  4.492646255E-08  4.089625180E-01  1.485036373E+00 
        99  1.500000000E+00  4.393939376E-01 -2.863585458E-08 -0.000000000E+00  2.863585458E-08  0.000000000E+00  0.000000000E+00  0.000000000E+00  4.572901346E-08  4.392688870E-01  1.485026360E+00 
