cellnumber     x-coordinate     y-coordinate     y-wall-shear     x-wall-shear       wall-shear velocity-magnitude       y-velocity       x-velocity         pressure     y-coordinate     x-coordinate 
         1  9.327022831E-16  9.871795177E-01  1.870235906E-06 -0.000000000E+00  1.870235906E-06  0.000000000E+00  0.000000000E+00  0.000000000E+00 -2.672956271E-06  9.872229099E-01  1.219300274E-02 
         2  8.540176868E-16  9.615384340E-01  6.358139899E-07 -0.000000000E+00  6.358139899E-07  0.000000000E+00  0.000000000E+00  0.000000000E+00 -1.495088554E-06  9.616132975E-01  1.218760852E-02 
         3  8.312439355E-16  9.358974695E-01  4.640810971E-07 -0.000000000E+00  4.640810687E-07  0.000000000E+00  0.000000000E+00  0.000000000E+00 -8.396363569E-07  9.360156059E-01  1.215838827E-02 
         4  8.084700783E-16  9.102563858E-01  3.278788938E-07 -0.000000000E+00  3.278788938E-07  0.000000000E+00  0.000000000E+00  0.000000000E+00 -5.682448432E-07  9.104097486E-01  1.217584498E-02 
         5  7.856963269E-16  8.846154213E-01  2.417873191E-07 -0.000000000E+00  2.417873191E-07  0.000000000E+00  0.000000000E+00  0.000000000E+00 -4.361461947E-07  8.847913742E-01  1.220678724E-02 
         6  7.629224697E-16  8.589743376E-01  1.883974505E-07 -0.000000000E+00  1.883974505E-07  0.000000000E+00  0.000000000E+00  0.000000000E+00 -3.557240120E-07  8.591540456E-01  1.222963724E-02 
         7  7.401487184E-16  8.333333731E-01  1.542009187E-07 -0.000000000E+00  1.542009187E-07  0.000000000E+00  0.000000000E+00  0.000000000E+00 -3.069164904E-07  8.335400820E-01  1.226854883E-02 
         8  7.173748612E-16  8.076922894E-01  1.330779185E-07 -0.000000000E+00  1.330779185E-07  0.000000000E+00  0.000000000E+00  0.000000000E+00 -2.736299791E-07  8.079108000E-01  1.228155475E-02 
         9  6.946011098E-16  7.820513248E-01  1.196399921E-07 -0.000000000E+00  1.196399921E-07  0.000000000E+00  0.000000000E+00  0.000000000E+00 -2.488063160E-07  7.822741866E-01  1.228952408E-02 
        10  6.718272526E-16  7.564102411E-01  1.111129464E-07 -0.000000000E+00  1.111129464E-07  0.000000000E+00  0.000000000E+00  0.000000000E+00 -2.283946543E-07  7.566472888E-01  1.231461950E-02 
        11  6.490535013E-16  7.307692766E-01  1.055401526E-07  2.706168623E-16  1.055401526E-07  0.000000000E+00  0.000000000E+00  0.000000000E+00 -2.103704588E-07  7.310187221E-01  1.233126502E-02 
        12  6.262796441E-16  7.051281929E-01  1.017234084E-07 -0.000000000E+00  1.017234013E-07  0.000000000E+00  0.000000000E+00  0.000000000E+00 -1.935596288E-07  7.053800821E-01  1.234335452E-02 
        13  6.035058927E-16  6.794872284E-01  9.884586660E-08 -0.000000000E+00  9.884586660E-08  0.000000000E+00  0.000000000E+00  0.000000000E+00 -1.773888698E-07  6.797527075E-01  1.236444712E-02 
        14  5.807320355E-16  6.538461447E-01  9.639953902E-08 -0.000000000E+00  9.639953191E-08  0.000000000E+00  0.000000000E+00  0.000000000E+00 -1.615258611E-07  6.541167498E-01  1.237084065E-02 
        15  5.579582842E-16  6.282051802E-01  9.403748891E-08 -0.000000000E+00  9.403748891E-08  0.000000000E+00  0.000000000E+00  0.000000000E+00 -1.458263199E-07  6.284769773E-01  1.237528957E-02 
        16  5.351844270E-16  6.025640965E-01  9.151030156E-08 -0.000000000E+00  9.151030156E-08  0.000000000E+00  0.000000000E+00  0.000000000E+00 -1.302685604E-07  6.028419137E-01  1.238240674E-02 
        17  5.124106756E-16  5.769231319E-01  8.864573431E-08 -0.000000000E+00  8.864573431E-08  0.000000000E+00  0.000000000E+00  0.000000000E+00 -1.148844007E-07  5.772025585E-01  1.238395181E-02 
        18  4.896368184E-16  5.512820482E-01  8.533027795E-08  2.706168623E-16  8.533027795E-08  0.000000000E+00  0.000000000E+00  0.000000000E+00 -9.978302984E-08  5.515624285E-01  1.238467637E-02 
        19  4.668630671E-16  5.256410837E-01  8.150342978E-08 -0.000000000E+00  8.150342978E-08  0.000000000E+00  0.000000000E+00  0.000000000E+00 -8.510808414E-08  5.259208679E-01  1.238879375E-02 
        20  4.440892099E-16  5.000000000E-01  7.715312478E-08 -0.000000000E+00  7.715312478E-08  0.000000000E+00  0.000000000E+00  0.000000000E+00 -7.102717348E-08  5.002790093E-01  1.239034720E-02 
        21  4.213154056E-16  4.743589759E-01  7.229737520E-08 -0.000000000E+00  7.229737520E-08  0.000000000E+00  0.000000000E+00  0.000000000E+00 -5.771228473E-08  4.746357501E-01  1.239291858E-02 
        22  3.985416013E-16  4.487179518E-01  6.697447930E-08 -0.000000000E+00  6.697447930E-08  0.000000000E+00  0.000000000E+00  0.000000000E+00 -4.532381936E-08  4.489818513E-01  1.240013726E-02 
        23  3.757677970E-16  4.230769277E-01  6.127893926E-08 -0.000000000E+00  6.127893926E-08  0.000000000E+00  0.000000000E+00  0.000000000E+00 -3.403585680E-08  4.233300090E-01  1.239841525E-02 
        24  3.529939927E-16  3.974359035E-01  5.527432378E-08 -0.000000000E+00  5.527432734E-08  0.000000000E+00  0.000000000E+00  0.000000000E+00 -2.395785437E-08  3.976769447E-01  1.240408048E-02 
        25  3.302201885E-16  3.717948794E-01  4.910886275E-08 -0.000000000E+00  4.910886275E-08  0.000000000E+00  0.000000000E+00  0.000000000E+00 -1.522001725E-08  3.720420897E-01  1.239480730E-02 
        26  3.074463842E-16  3.461538553E-01  4.286037125E-08 -0.000000000E+00  4.286037125E-08  0.000000000E+00  0.000000000E+00  0.000000000E+00 -7.840909255E-09  3.464167118E-01  1.239781547E-02 
        27  2.846725799E-16  3.205128312E-01  3.665853043E-08 -0.000000000E+00  3.665853043E-08  0.000000000E+00  0.000000000E+00  0.000000000E+00 -1.871058641E-09  3.207926452E-01  1.239026338E-02 
        28  2.618987756E-16  2.948718071E-01  3.061665410E-08 -0.000000000E+00  3.061665410E-08  0.000000000E+00  0.000000000E+00  0.000000000E+00  2.728094195E-09  2.951543927E-01  1.239590906E-02 
        29  2.391249714E-16  2.692307830E-01  2.485292327E-08 -0.000000000E+00  2.485292327E-08  0.000000000E+00  0.000000000E+00  0.000000000E+00  5.995814956E-09  2.694991231E-01  1.238984242E-02 
        30  2.163511671E-16  2.435897589E-01  1.957348417E-08 -0.000000000E+00  1.957348239E-08  0.000000000E+00  0.000000000E+00  0.000000000E+00  8.046391997E-09  2.438452244E-01  1.239247900E-02 
        31  1.935773496E-16  2.179487199E-01  1.457596976E-08 -0.000000000E+00  1.457596976E-08  0.000000000E+00  0.000000000E+00  0.000000000E+00  9.081261965E-09  2.181829363E-01  1.238078251E-02 
        32  1.708035453E-16  1.923076957E-01  1.036471442E-08 -0.000000000E+00  1.036471442E-08  0.000000000E+00  0.000000000E+00  0.000000000E+00  9.040856064E-09  1.925286651E-01  1.236873865E-02 
        33  1.480297410E-16  1.666666716E-01  6.624399695E-09 -0.000000000E+00  6.624400140E-09  0.000000000E+00  0.000000000E+00  0.000000000E+00  8.141580743E-09  1.668806225E-01  1.236310974E-02 
        34  1.252559368E-16  1.410256475E-01  3.763777734E-09 -0.000000000E+00  3.763777734E-09  0.000000000E+00  0.000000000E+00  0.000000000E+00  6.781599282E-09  1.411977708E-01  1.234778203E-02 
        35  1.024821325E-16  1.153846234E-01  1.581214049E-09 -0.000000000E+00  1.581214049E-09  0.000000000E+00  0.000000000E+00  0.000000000E+00  5.074296983E-09  1.155181900E-01  1.232313178E-02 
        36  7.970832158E-17  8.974359185E-02  1.848861203E-10 -0.000000000E+00  1.848861064E-10  0.000000000E+00  0.000000000E+00  0.000000000E+00  3.349023503E-09  8.984853327E-02  1.231984887E-02 
        37  5.693451731E-17  6.410256773E-02 -5.416248006E-10 -0.000000000E+00  5.416248006E-10  0.000000000E+00  0.000000000E+00  0.000000000E+00  1.787784476E-09  6.415876746E-02  1.228223462E-02 
        38  3.416070972E-17  3.846153989E-02 -5.637933453E-10  1.691355389E-17  5.637933453E-10  0.000000000E+00  0.000000000E+00  0.000000000E+00  5.223496080E-10  3.849475831E-02  1.225871034E-02 
        39  1.138690297E-17  1.282051299E-02 -6.322066481E-11 -0.000000000E+00  6.322066481E-11  0.000000000E+00  0.000000000E+00  0.000000000E+00  0.000000000E+00  1.284349989E-02  1.224574726E-02 
        40  1.222222205E-02  0.000000000E+00 -0.000000000E+00  4.368719275E-11  4.368719275E-11  0.000000000E+00  0.000000000E+00  0.000000000E+00  0.000000000E+00  1.284349989E-02  1.224574726E-02 
        41  3.666666523E-02  0.000000000E+00 -0.000000000E+00  5.371863510E-10  5.371863510E-10  0.000000000E+00  0.000000000E+00  0.000000000E+00 -4.515908480E-10  1.285373326E-02  3.670315444E-02 
        42  6.111110747E-02  0.000000000E+00 -0.000000000E+00  5.729384189E-10  5.729384189E-10  0.000000000E+00  0.000000000E+00  0.000000000E+00 -1.559375074E-09  1.287672110E-02  6.117112935E-02 
        43  8.555555344E-02  0.000000000E+00 -0.000000000E+00  8.622256381E-11  8.622255687E-11  0.000000000E+00  0.000000000E+00  0.000000000E+00 -2.981380698E-09  1.287855394E-02  8.564665914E-02 
        44  1.099999994E-01  0.000000000E+00 -0.000000000E+00 -8.814328156E-10  8.814328156E-10  0.000000000E+00  0.000000000E+00  0.000000000E+00 -4.651129704E-09  1.285370532E-02  1.101196334E-01 
        45  1.344444454E-01  0.000000000E+00 -0.000000000E+00 -2.324388904E-09  2.324388904E-09  0.000000000E+00  0.000000000E+00  0.000000000E+00 -6.392423924E-09  1.284530479E-02  1.345822215E-01 
        46  1.588888764E-01  0.000000000E+00 -0.000000000E+00 -4.156615496E-09  4.156615496E-09  0.000000000E+00  0.000000000E+00  0.000000000E+00 -8.107524430E-09  1.278808434E-02  1.590282470E-01 
        47  1.833333373E-01  0.000000000E+00 -0.000000000E+00 -6.324879731E-09  6.324880175E-09  0.000000000E+00  0.000000000E+00  0.000000000E+00 -9.697195935E-09  1.276845206E-02  1.834624708E-01 
        48  2.077777684E-01  0.000000000E+00 -0.000000000E+00 -8.763018755E-09  8.763018755E-09  0.000000000E+00  0.000000000E+00  0.000000000E+00 -1.110619774E-08  1.273608115E-02  2.078799754E-01 
        49  2.322222292E-01  0.000000000E+00 -0.000000000E+00 -1.142205797E-08  1.142205797E-08  0.000000000E+00  0.000000000E+00  0.000000000E+00 -1.231526081E-08  1.269343123E-02  2.323081493E-01 
        50  2.566666603E-01  0.000000000E+00 -0.000000000E+00 -1.427282381E-08  1.427282381E-08  0.000000000E+00  0.000000000E+00  0.000000000E+00 -1.327953747E-08  1.266921498E-02  2.567616999E-01 
        51  2.811111212E-01  0.000000000E+00 -0.000000000E+00 -1.721655174E-08  1.721655174E-08  0.000000000E+00  0.000000000E+00  0.000000000E+00 -1.398889360E-08  1.264619734E-02  2.812000513E-01 
        52  3.055555522E-01  0.000000000E+00 -0.000000000E+00 -2.040803437E-08  2.040803437E-08  0.000000000E+00  0.000000000E+00  0.000000000E+00 -1.445577702E-08  1.260924153E-02  3.056490123E-01 
        53  3.299999833E-01  0.000000000E+00 -0.000000000E+00 -2.365578133E-08  2.365578311E-08  0.000000000E+00  0.000000000E+00  0.000000000E+00 -1.446862896E-08  1.259679347E-02  3.300969899E-01 
        54  3.544444442E-01  0.000000000E+00 -0.000000000E+00 -2.700704549E-08  2.700704549E-08  0.000000000E+00  0.000000000E+00  0.000000000E+00 -1.398147731E-08  1.258405391E-02  3.545368314E-01 
        55  3.788889050E-01  0.000000000E+00 -0.000000000E+00 -3.025154172E-08  3.025154172E-08  0.000000000E+00  0.000000000E+00  0.000000000E+00 -1.312398901E-08  1.253870502E-02  3.789897263E-01 
        56  4.033333361E-01  0.000000000E+00 -0.000000000E+00 -3.352497657E-08  3.352497657E-08  0.000000000E+00  0.000000000E+00  0.000000000E+00 -1.177073994E-08  1.249349210E-02  4.034643769E-01 
        57  4.277777672E-01  0.000000000E+00 -0.000000000E+00 -3.670140813E-08  3.670140813E-08  0.000000000E+00  0.000000000E+00  0.000000000E+00 -9.880419150E-09  1.246059220E-02  4.279136956E-01 
        58  4.522222281E-01  0.000000000E+00 -0.000000000E+00 -3.968883178E-08  3.968882822E-08  0.000000000E+00  0.000000000E+00  0.000000000E+00 -7.381836475E-09  1.241201907E-02  4.523873031E-01 
        59  4.766666889E-01  0.000000000E+00 -0.000000000E+00 -4.239572249E-08  4.239572249E-08  0.000000000E+00  0.000000000E+00  0.000000000E+00 -4.274720578E-09  1.240862813E-02  4.768328369E-01 
        60  5.011110902E-01  0.000000000E+00 -0.000000000E+00 -4.473681514E-08  4.473681514E-08  0.000000000E+00  0.000000000E+00  0.000000000E+00 -5.762638700E-10  1.240526699E-02  5.012761950E-01 
        61  5.255555511E-01  0.000000000E+00 -0.000000000E+00 -4.661684727E-08  4.661684727E-08  0.000000000E+00  0.000000000E+00  0.000000000E+00  3.692936845E-09  1.240019593E-02  5.257211924E-01 
        62  5.500000119E-01  0.000000000E+00 -0.000000000E+00 -4.795289854E-08  4.795289499E-08  0.000000000E+00  0.000000000E+00  0.000000000E+00  8.462754053E-09  1.239850093E-02  5.501661897E-01 
        63  5.744444132E-01  0.000000000E+00 -0.000000000E+00 -4.865718850E-08  4.865718850E-08  0.000000000E+00  0.000000000E+00  0.000000000E+00  1.366507885E-08  1.239682082E-02  5.746100545E-01 
        64  5.988888741E-01  0.000000000E+00 -0.000000000E+00 -4.862049607E-08  4.862049607E-08  0.000000000E+00  0.000000000E+00  0.000000000E+00  1.916098746E-08  1.239428483E-02  5.990547538E-01 
        65  6.233333349E-01  0.000000000E+00 -0.000000000E+00 -4.783849405E-08  4.783849405E-08  0.000000000E+00  0.000000000E+00  0.000000000E+00  2.478631345E-08  1.239343733E-02  6.234995127E-01 
        66  6.477777958E-01  0.000000000E+00 -0.000000000E+00 -4.627602479E-08  4.627602479E-08  0.000000000E+00  0.000000000E+00  0.000000000E+00  3.036415208E-08  1.239259727E-02  6.479436755E-01 
        67  6.722222567E-01  0.000000000E+00 -0.000000000E+00 -4.393744035E-08  4.393744035E-08  0.000000000E+00  0.000000000E+00  0.000000000E+00  3.569489593E-08  1.239132974E-02  6.723882556E-01 
        68  6.966666579E-01  0.000000000E+00 -0.000000000E+00 -4.087365468E-08  4.087365468E-08  0.000000000E+00  0.000000000E+00  0.000000000E+00  4.058440695E-08  1.239090599E-02  6.968328357E-01 
        69  7.211111188E-01  0.000000000E+00 -0.000000000E+00 -3.715903674E-08  3.715903674E-08  0.000000000E+00  0.000000000E+00  0.000000000E+00  4.484238758E-08  1.239048503E-02  7.212771177E-01 
        70  7.455555201E-01  0.000000000E+00 -0.000000000E+00 -3.291437167E-08  3.291437167E-08  0.000000000E+00  0.000000000E+00  0.000000000E+00  4.828610400E-08  1.241100114E-02  7.457131743E-01 
        71  7.699999809E-01  0.000000000E+00 -0.000000000E+00 -2.829461110E-08  2.829460932E-08  0.000000000E+00  0.000000000E+00  0.000000000E+00  5.079952103E-08  1.244388521E-02  7.701314688E-01 
        72  7.944444418E-01  0.000000000E+00 -0.000000000E+00 -2.350470218E-08  2.350470218E-08  0.000000000E+00  0.000000000E+00  0.000000000E+00  5.235047951E-08  1.246482506E-02  7.945673466E-01 
        73  8.188889027E-01  0.000000000E+00 -0.000000000E+00 -1.862183829E-08  1.862183829E-08  0.000000000E+00  0.000000000E+00  0.000000000E+00  5.288709914E-08  1.250436995E-02  8.189894557E-01 
        74  8.433333635E-01  0.000000000E+00  2.838638487E-16 -1.388363380E-08  1.388363380E-08  0.000000000E+00  0.000000000E+00  0.000000000E+00  5.230097599E-08  1.250984892E-02  8.434336782E-01 
        75  8.677777648E-01  0.000000000E+00 -2.838638487E-16 -9.592637795E-09  9.592637795E-09  0.000000000E+00  0.000000000E+00  0.000000000E+00  5.082723931E-08  1.251650974E-02  8.678818941E-01 
        76  8.922222257E-01  0.000000000E+00 -0.000000000E+00 -5.772719192E-09  5.772719192E-09  0.000000000E+00  0.000000000E+00  0.000000000E+00  4.864976333E-08  1.251901407E-02  8.923249245E-01 
        77  9.166666865E-01  0.000000000E+00 -0.000000000E+00 -2.639645391E-09  2.639645391E-09  0.000000000E+00  0.000000000E+00  0.000000000E+00  4.591052871E-08  1.251618750E-02  9.167701006E-01 
        78  9.411110878E-01  0.000000000E+00 -0.000000000E+00 -1.920272413E-10  1.920272413E-10  0.000000000E+00  0.000000000E+00  0.000000000E+00  4.297377743E-08  1.251321100E-02  9.412133098E-01 
        79  9.655555487E-01  0.000000000E+00 -0.000000000E+00  1.406401884E-09  1.406401884E-09  0.000000000E+00  0.000000000E+00  0.000000000E+00  3.973295648E-08  1.253751945E-02  9.656588435E-01 
        80  9.900000095E-01  0.000000000E+00 -0.000000000E+00  2.182185321E-09  2.182185321E-09  0.000000000E+00  0.000000000E+00  0.000000000E+00  3.697999063E-08  1.257127337E-02  9.900838733E-01 
        81  1.014444351E+00  0.000000000E+00 -0.000000000E+00  2.339409333E-09  2.339409333E-09  0.000000000E+00  0.000000000E+00  0.000000000E+00  3.440348095E-08  1.259840839E-02  1.014528632E+00 
        82  1.038888931E+00  0.000000000E+00 -0.000000000E+00  1.722815002E-09  1.722814891E-09  0.000000000E+00  0.000000000E+00  0.000000000E+00  3.263132342E-08  1.267363038E-02  1.038952589E+00 
        83  1.063333273E+00  0.000000000E+00 -0.000000000E+00  9.137321455E-10  9.137322010E-10  0.000000000E+00  0.000000000E+00  0.000000000E+00  3.173628471E-08  1.272633765E-02  1.063365817E+00 
        84  1.087777853E+00  0.000000000E+00 -0.000000000E+00  3.154451700E-11  3.154451700E-11  0.000000000E+00  0.000000000E+00  0.000000000E+00  3.135290072E-08  1.276780572E-02  1.087808967E+00 
        85  1.100000024E+00  1.282051299E-02  6.896741511E-11 -6.765421556E-17  6.896741511E-11  0.000000000E+00  0.000000000E+00  0.000000000E+00  3.135290072E-08  1.276780572E-02  1.087808967E+00 
        86  1.100000024E+00  3.846153989E-02  1.003934602E-09 -0.000000000E+00  1.003934602E-09  0.000000000E+00  0.000000000E+00  0.000000000E+00  3.090911349E-08  3.836736456E-02  1.087810159E+00 
        87  1.100000024E+00  6.410256773E-02  1.872172417E-09 -0.000000000E+00  1.872172417E-09  0.000000000E+00  0.000000000E+00  0.000000000E+00  2.984851477E-08  6.395578384E-02  1.087841392E+00 
        88  1.100000024E+00  8.974359185E-02  2.588655734E-09 -0.000000000E+00  2.588655512E-09  0.000000000E+00  0.000000000E+00  0.000000000E+00  2.783651887E-08  8.955289423E-02  1.087826252E+00 
        89  1.100000024E+00  1.153846234E-01  2.790963238E-09  4.228388473E-18  2.790963238E-09  0.000000000E+00  0.000000000E+00  0.000000000E+00  2.490582318E-08  1.151780114E-01  1.087804198E+00 
        90  1.100000024E+00  1.410256475E-01  2.383833797E-09 -0.000000000E+00  2.383834019E-09  0.000000000E+00  0.000000000E+00  0.000000000E+00  2.130837196E-08  1.408166736E-01  1.087787867E+00 
        91  1.100000024E+00  1.666666716E-01  1.572927344E-09 -0.000000000E+00  1.572927344E-09  0.000000000E+00  0.000000000E+00  0.000000000E+00  1.723180887E-08  1.664341986E-01  1.087747574E+00 
        92  1.100000024E+00  1.923076957E-01  1.248688652E-10 -1.353084311E-16  1.248688652E-10  0.000000000E+00  0.000000000E+00  0.000000000E+00  1.222661172E-08  1.920512319E-01  1.087719440E+00 
        93  1.100000024E+00  2.179487199E-01 -2.017986667E-09 -0.000000000E+00  2.017986667E-09  0.000000000E+00  0.000000000E+00  0.000000000E+00  6.937953323E-09  2.176846266E-01  1.087701082E+00 
        94  1.100000024E+00  2.435897589E-01 -4.715531077E-09 -0.000000000E+00  4.715531077E-09  0.000000000E+00  0.000000000E+00  0.000000000E+00  1.002385730E-09  2.433050722E-01  1.087665677E+00 
        95  1.100000024E+00  2.692307830E-01 -8.173510757E-09 -0.000000000E+00  8.173510757E-09  0.000000000E+00  0.000000000E+00  0.000000000E+00 -5.593534524E-09  2.689446807E-01  1.087659121E+00 
        96  1.100000024E+00  2.948718071E-01 -1.248779924E-08 -0.000000000E+00  1.248779924E-08  0.000000000E+00  0.000000000E+00  0.000000000E+00 -1.280731876E-08  2.945891023E-01  1.087651730E+00 
        97  1.100000024E+00  3.205128312E-01 -1.778009029E-08 -0.000000000E+00  1.778009029E-08  0.000000000E+00  0.000000000E+00  0.000000000E+00 -2.063766225E-08  3.202283680E-01  1.087641597E+00 
        98  1.100000024E+00  3.461538553E-01 -2.421380785E-08 -0.000000000E+00  2.421380785E-08  0.000000000E+00  0.000000000E+00  0.000000000E+00 -2.907432517E-08  3.458661437E-01  1.087636828E+00 
        99  1.100000024E+00  3.717948794E-01 -3.196809573E-08 -0.000000000E+00  3.196809573E-08  0.000000000E+00  0.000000000E+00  0.000000000E+00 -3.805162407E-08  3.715068102E-01  1.087633252E+00 
