cellnumber     x-coordinate     y-coordinate     y-wall-shear     x-wall-shear       wall-shear velocity-magnitude       y-velocity       x-velocity         pressure     y-coordinate     x-coordinate 
         1  1.145947910E-15  9.848484993E-01  7.395836121E-08 -0.000000000E+00  7.395836121E-08  0.000000000E+00  0.000000000E+00  0.000000000E+00 -1.342128542E-07  9.848644137E-01  1.468407363E-02 
         2  1.271710068E-15  9.545454979E-01  3.321808961E-08 -2.289834988E-16  3.321808961E-08  0.000000000E+00  0.000000000E+00  0.000000000E+00 -7.881988751E-08  9.545643926E-01  1.466838084E-02 
         3  1.231338254E-15  9.242424369E-01  2.673082022E-08 -0.000000000E+00  2.673082022E-08  0.000000000E+00  0.000000000E+00  0.000000000E+00 -4.721528057E-08  9.242773056E-01  1.464657299E-02 
         4  1.190966546E-15  8.939393759E-01  2.078603956E-08 -0.000000000E+00  2.078603778E-08  0.000000000E+00  0.000000000E+00  0.000000000E+00 -3.176906915E-08  8.939579129E-01  1.466869842E-02 
         5  1.150594732E-15  8.636363745E-01  1.675844352E-08 -0.000000000E+00  1.675844175E-08  0.000000000E+00  0.000000000E+00  0.000000000E+00 -2.333742799E-08  8.636599183E-01  1.470180135E-02 
         6  1.110223025E-15  8.333333731E-01  1.380225179E-08 -0.000000000E+00  1.380225179E-08  0.000000000E+00  0.000000000E+00  0.000000000E+00 -1.748615119E-08  8.333376050E-01  1.473961957E-02 
         7  1.069851317E-15  8.030303121E-01  1.160471363E-08 -0.000000000E+00  1.160471452E-08  0.000000000E+00  0.000000000E+00  0.000000000E+00 -1.352816970E-08  8.030473590E-01  1.481709722E-02 
         8  1.029479503E-15  7.727272511E-01  9.979936877E-09 -0.000000000E+00  9.979936877E-09  0.000000000E+00  0.000000000E+00  0.000000000E+00 -1.067062083E-08  7.727881074E-01  1.487809885E-02 
         9  9.891077952E-16  7.424242496E-01  8.705515420E-09 -0.000000000E+00  8.705515420E-09  0.000000000E+00  0.000000000E+00  0.000000000E+00 -8.509451810E-09  7.424929738E-01  1.492247358E-02 
        10  9.487359815E-16  7.121212482E-01  7.676368874E-09 -0.000000000E+00  7.676368874E-09  0.000000000E+00  0.000000000E+00  0.000000000E+00 -6.821375020E-09  7.122339010E-01  1.498778444E-02 
        11  9.083642736E-16  6.818181872E-01  6.821728071E-09 -0.000000000E+00  6.821728515E-09  0.000000000E+00  0.000000000E+00  0.000000000E+00 -5.457291508E-09  6.819345355E-01  1.499339007E-02 
        12  8.679925658E-16  6.515151262E-01  6.088043847E-09 -0.000000000E+00  6.088043847E-09  0.000000000E+00  0.000000000E+00  0.000000000E+00 -4.338487791E-09  6.516318321E-01  1.499769930E-02 
        13  8.276208050E-16  6.212121248E-01  5.446218587E-09 -0.000000000E+00  5.446218587E-09  0.000000000E+00  0.000000000E+00  0.000000000E+00 -3.408812788E-09  6.213326454E-01  1.500545908E-02 
        14  7.872490442E-16  5.909091234E-01  4.874294746E-09 -0.000000000E+00  4.874294746E-09  0.000000000E+00  0.000000000E+00  0.000000000E+00 -2.628734563E-09  5.910314322E-01  1.500826236E-02 
        15  7.468773364E-16  5.606060624E-01  4.356615513E-09 -0.000000000E+00  4.356615513E-09  0.000000000E+00  0.000000000E+00  0.000000000E+00 -1.971155683E-09  5.607286096E-01  1.501041651E-02 
        16  7.065055226E-16  5.303030014E-01  3.882261179E-09 -0.000000000E+00  3.882261179E-09  0.000000000E+00  0.000000000E+00  0.000000000E+00 -1.416717299E-09  5.304274559E-01  1.501429733E-02 
        17  6.661338148E-16  5.000000000E-01  3.443509256E-09 -0.000000000E+00  3.443509033E-09  0.000000000E+00  0.000000000E+00  0.000000000E+00 -9.507521437E-10  5.001253486E-01  1.501569897E-02 
        18  6.257621069E-16  4.696969986E-01  3.034699825E-09 -0.000000000E+00  3.034699825E-09  0.000000000E+00  0.000000000E+00  0.000000000E+00 -5.624518074E-10  4.698224366E-01  1.501677558E-02 
        19  5.853902932E-16  4.393939376E-01  2.652070341E-09 -0.000000000E+00  2.652070341E-09  0.000000000E+00  0.000000000E+00  0.000000000E+00 -2.434265844E-10  4.395203590E-01  1.501871645E-02 
        20  5.450185854E-16  4.090909362E-01  2.292954049E-09 -0.000000000E+00  2.292954049E-09  0.000000000E+00  0.000000000E+00  0.000000000E+00  1.316094456E-11  4.092177749E-01  1.501941681E-02 
        21  5.046468246E-16  3.787878752E-01  1.956034668E-09 -0.000000000E+00  1.956034668E-09  0.000000000E+00  0.000000000E+00  0.000000000E+00  2.123630855E-10  3.789148033E-01  1.501995604E-02 
        22  4.642750638E-16  3.484848738E-01  1.640340197E-09 -0.000000000E+00  1.640340197E-09  0.000000000E+00  0.000000000E+00  0.000000000E+00  3.593635667E-10  3.486122489E-01  1.502092555E-02 
        23  4.239033559E-16  3.181818128E-01  1.348215761E-09 -0.000000000E+00  1.348215761E-09  0.000000000E+00  0.000000000E+00  0.000000000E+00  4.589214286E-10  3.183094561E-01  1.502127666E-02 
        24  3.835315951E-16  2.878788114E-01  1.076099321E-09 -0.000000000E+00  1.076099321E-09  0.000000000E+00  0.000000000E+00  0.000000000E+00  5.168172001E-10  2.880064547E-01  1.502154581E-02 
        25  3.431598343E-16  2.575757504E-01  8.274639862E-10 -0.000000000E+00  8.274639862E-10  0.000000000E+00  0.000000000E+00  0.000000000E+00  5.336767139E-10  2.577036619E-01  1.502203103E-02 
        26  3.027881000E-16  2.272727340E-01  6.026821264E-10 -0.000000000E+00  6.026821264E-10  0.000000000E+00  0.000000000E+00  0.000000000E+00  5.091608801E-10  2.274007350E-01  1.502220612E-02 
        27  2.624163657E-16  1.969697028E-01  4.117184926E-10 -0.000000000E+00  4.117184926E-10  0.000000000E+00  0.000000000E+00  0.000000000E+00  4.563763534E-10  1.970977187E-01  1.502234023E-02 
        28  2.220446049E-16  1.666666716E-01  2.492024920E-10 -0.000000000E+00  2.492025197E-10  0.000000000E+00  0.000000000E+00  0.000000000E+00  3.815678051E-10  1.667933762E-01  1.498348732E-02 
        29  1.816728706E-16  1.363636404E-01  1.219405410E-10 -0.000000000E+00  1.219405410E-10  0.000000000E+00  0.000000000E+00  0.000000000E+00  2.900505947E-10  1.364589036E-01  1.493377239E-02 
        30  1.413011098E-16  1.060606092E-01  3.298491341E-11 -0.000000000E+00  3.298491341E-11  0.000000000E+00  0.000000000E+00  0.000000000E+00  1.943010336E-10  1.061545238E-01  1.489474438E-02 
        31  1.009293689E-16  7.575757802E-02 -1.724058396E-11 -0.000000000E+00  1.724058396E-11  0.000000000E+00  0.000000000E+00  0.000000000E+00  1.059285160E-10  7.581625879E-02  1.481531188E-02 
        32  6.055762133E-17  4.545454681E-02 -2.891799300E-11 -0.000000000E+00  2.891799300E-11  0.000000000E+00  0.000000000E+00  0.000000000E+00  3.437606103E-11  4.548574984E-02  1.477545593E-02 
        33  2.018587378E-17  1.515151560E-02 -4.086328498E-12 -0.000000000E+00  4.086328498E-12  0.000000000E+00  0.000000000E+00  0.000000000E+00  0.000000000E+00  1.517904084E-02  1.474573929E-02 
        34  1.470588241E-02  0.000000000E+00 -0.000000000E+00  3.073785584E-12  3.073785584E-12  0.000000000E+00  0.000000000E+00  0.000000000E+00  0.000000000E+00  1.517904084E-02  1.474573929E-02 
        35  4.411764815E-02  0.000000000E+00 -0.000000000E+00  2.846810461E-11  2.846810461E-11  0.000000000E+00  0.000000000E+00  0.000000000E+00 -3.113864375E-11  1.518271957E-02  4.418722168E-02 
        36  7.352941483E-02  0.000000000E+00 -0.000000000E+00  1.870335484E-11  1.870335310E-11  0.000000000E+00  0.000000000E+00  0.000000000E+00 -9.809241613E-11  1.521024574E-02  7.363888621E-02 
        37  1.029411778E-01  0.000000000E+00 -0.000000000E+00 -2.657471986E-11  2.657472159E-11  0.000000000E+00  0.000000000E+00  0.000000000E+00 -1.810852024E-10  1.521364506E-02  1.031199545E-01 
        38  1.323529482E-01  0.000000000E+00 -0.000000000E+00 -1.062100130E-10  1.062100130E-10  0.000000000E+00  0.000000000E+00  0.000000000E+00 -2.703549329E-10  1.518266834E-02  1.325810552E-01 
        39  1.617647111E-01  0.000000000E+00 -0.000000000E+00 -2.189053938E-10  2.189053938E-10  0.000000000E+00  0.000000000E+00  0.000000000E+00 -3.561468342E-10  1.518239081E-02  1.620325446E-01 
        40  1.911764741E-01  0.000000000E+00 -0.000000000E+00 -3.591684172E-10  3.591684172E-10  0.000000000E+00  0.000000000E+00  0.000000000E+00 -4.262664388E-10  1.513549685E-02  1.914883852E-01 
        41  2.205882370E-01  0.000000000E+00 -0.000000000E+00 -5.180836316E-10  5.180836316E-10  0.000000000E+00  0.000000000E+00  0.000000000E+00 -4.757270688E-10  1.511932351E-02  2.209053636E-01 
        42  2.500000000E-01  0.000000000E+00 -0.000000000E+00 -6.975170441E-10  6.975170441E-10  0.000000000E+00  0.000000000E+00  0.000000000E+00 -5.014602067E-10  1.510340627E-02  2.503119409E-01 
        43  2.794117928E-01  0.000000000E+00 -0.000000000E+00 -8.844392996E-10  8.844392996E-10  0.000000000E+00  0.000000000E+00  0.000000000E+00 -4.951566379E-10  1.507927291E-02  2.797263265E-01 
        44  3.088235259E-01  0.000000000E+00 -0.000000000E+00 -1.079317524E-09  1.079317635E-09  0.000000000E+00  0.000000000E+00  0.000000000E+00 -4.568633805E-10  1.507118717E-02  3.091407120E-01 
        45  3.382353187E-01  0.000000000E+00 -0.000000000E+00 -1.271972860E-09  1.271972860E-09  0.000000000E+00  0.000000000E+00  0.000000000E+00 -3.910147484E-10  1.506322715E-02  3.385498822E-01 
        46  3.676470518E-01  0.000000000E+00 -0.000000000E+00 -1.465064070E-09  1.465064070E-09  0.000000000E+00  0.000000000E+00  0.000000000E+00 -2.964358481E-10  1.505116187E-02  3.679629564E-01 
        47  3.970588446E-01  0.000000000E+00 -0.000000000E+00 -1.653310044E-09  1.653310044E-09  0.000000000E+00  0.000000000E+00  0.000000000E+00 -1.735534078E-10  1.504711900E-02  3.973760307E-01 
        48  4.264705777E-01  0.000000000E+00 -0.000000000E+00 -1.834643326E-09  1.834643326E-09  0.000000000E+00  0.000000000E+00  0.000000000E+00 -2.341079414E-11  1.504313853E-02  4.267865121E-01 
        49  4.558823705E-01  0.000000000E+00 -0.000000000E+00 -2.006968813E-09  2.006968813E-09  0.000000000E+00  0.000000000E+00  0.000000000E+00  1.522598436E-10  1.503710542E-02  4.561989307E-01 
        50  4.852941036E-01  0.000000000E+00 -0.000000000E+00 -2.168765612E-09  2.168765612E-09  0.000000000E+00  0.000000000E+00  0.000000000E+00  3.518435820E-10  1.503508445E-02  4.856113493E-01 
        51  5.147058964E-01  0.000000000E+00 -0.000000000E+00 -2.318764514E-09  2.318764514E-09  0.000000000E+00  0.000000000E+00  0.000000000E+00  5.734824282E-10  1.503309421E-02  5.150224566E-01 
        52  5.441176891E-01  0.000000000E+00 -0.000000000E+00 -2.455927461E-09  2.455927461E-09  0.000000000E+00  0.000000000E+00  0.000000000E+00  8.154396602E-10  1.503007766E-02  5.444345474E-01 
        53  5.735294223E-01  0.000000000E+00 -0.000000000E+00 -2.579383596E-09  2.579383596E-09  0.000000000E+00  0.000000000E+00  0.000000000E+00  1.075889156E-09  1.502906717E-02  5.738466382E-01 
        54  6.029411554E-01  0.000000000E+00 -0.000000000E+00 -2.688429479E-09  2.688429479E-09  0.000000000E+00  0.000000000E+00  0.000000000E+00  1.352936208E-09  1.502807159E-02  6.032580733E-01 
        55  6.323529482E-01  0.000000000E+00 -0.000000000E+00 -2.782435171E-09  2.782435171E-09  0.000000000E+00  0.000000000E+00  0.000000000E+00  1.644764991E-09  1.502656378E-02  6.326700449E-01 
        56  6.617647409E-01  0.000000000E+00 -0.000000000E+00 -2.860816473E-09  2.860816473E-09  0.000000000E+00  0.000000000E+00  0.000000000E+00  1.949481687E-09  1.502605900E-02  6.620819569E-01 
        57  6.911764741E-01  0.000000000E+00 -0.000000000E+00 -2.923051579E-09  2.923051579E-09  0.000000000E+00  0.000000000E+00  0.000000000E+00  2.265141408E-09  1.502556074E-02  6.914935708E-01 
        58  7.205882072E-01  0.000000000E+00 -0.000000000E+00 -2.968544965E-09  2.968544965E-09  0.000000000E+00  0.000000000E+00  0.000000000E+00  2.589819248E-09  1.502480730E-02  7.209054232E-01 
        59  7.500000000E-01  0.000000000E+00 -0.000000000E+00 -2.996922044E-09  2.996922266E-09  0.000000000E+00  0.000000000E+00  0.000000000E+00  2.921443087E-09  1.502455398E-02  7.503172159E-01 
        60  7.794117928E-01  0.000000000E+00 -0.000000000E+00 -3.007879279E-09  3.007879279E-09  0.000000000E+00  0.000000000E+00  0.000000000E+00  3.257950798E-09  1.502430532E-02  7.797289491E-01 
        61  8.088235259E-01  0.000000000E+00 -0.000000000E+00 -2.999663407E-09  2.999663185E-09  0.000000000E+00  0.000000000E+00  0.000000000E+00  3.596408060E-09  1.502392814E-02  8.091407418E-01 
        62  8.382352591E-01  0.000000000E+00 -0.000000000E+00 -2.973394420E-09  2.973394198E-09  0.000000000E+00  0.000000000E+00  0.000000000E+00  3.935149095E-09  1.502380241E-02  8.385525346E-01 
        63  8.676470518E-01  0.000000000E+00 -0.000000000E+00 -2.927724729E-09  2.927724729E-09  0.000000000E+00  0.000000000E+00  0.000000000E+00  4.271202059E-09  1.502367761E-02  8.679642677E-01 
        64  8.970588446E-01  0.000000000E+00 -0.000000000E+00 -2.862490689E-09  2.862490689E-09  0.000000000E+00  0.000000000E+00  0.000000000E+00  4.601639514E-09  1.502348948E-02  8.973760605E-01 
        65  9.264705777E-01  0.000000000E+00 -0.000000000E+00 -2.777502006E-09  2.777502006E-09  0.000000000E+00  0.000000000E+00  0.000000000E+00  4.923532249E-09  1.502342615E-02  9.267878532E-01 
        66  9.558823109E-01  0.000000000E+00 -0.000000000E+00 -2.672748911E-09  2.672748911E-09  0.000000000E+00  0.000000000E+00  0.000000000E+00  5.233665501E-09  1.502336375E-02  9.561995864E-01 
        67  9.852941036E-01  0.000000000E+00 -0.000000000E+00 -2.548439015E-09  2.548439015E-09  0.000000000E+00  0.000000000E+00  0.000000000E+00  5.528765445E-09  1.502326969E-02  9.856113791E-01 
        68  1.014705896E+00  0.000000000E+00 -0.000000000E+00 -2.405280197E-09  2.405280197E-09  0.000000000E+00  0.000000000E+00  0.000000000E+00  5.805336212E-09  1.502323803E-02  1.015023112E+00 
        69  1.044117689E+00  0.000000000E+00 -0.000000000E+00 -2.243852215E-09  2.243852215E-09  0.000000000E+00  0.000000000E+00  0.000000000E+00  6.060027591E-09  1.502320636E-02  1.044434905E+00 
        70  1.073529482E+00  0.000000000E+00 -0.000000000E+00 -2.066352423E-09  2.066352423E-09  0.000000000E+00  0.000000000E+00  0.000000000E+00  6.288597199E-09  1.500612125E-02  1.073804021E+00 
        71  1.102941155E+00  0.000000000E+00  1.474514955E-17 -1.873758260E-09  1.873758260E-09  0.000000000E+00  0.000000000E+00  0.000000000E+00  6.489305093E-09  1.501733158E-02  1.103175521E+00 
        72  1.132352948E+00  0.000000000E+00 -0.000000000E+00 -1.669536176E-09  1.669536176E-09  0.000000000E+00  0.000000000E+00  0.000000000E+00  6.658035456E-09  1.500027813E-02  1.132544756E+00 
        73  1.161764741E+00  0.000000000E+00 -0.000000000E+00 -1.456212595E-09  1.456212595E-09  0.000000000E+00  0.000000000E+00  0.000000000E+00  6.793100304E-09  1.501480024E-02  1.161910772E+00 
        74  1.191176414E+00  0.000000000E+00 -0.000000000E+00 -1.237912661E-09  1.237912661E-09  0.000000000E+00  0.000000000E+00  0.000000000E+00  6.892280968E-09  1.502306201E-02  1.191313505E+00 
        75  1.220588207E+00  0.000000000E+00 -0.000000000E+00 -1.021603691E-09  1.021603691E-09  0.000000000E+00  0.000000000E+00  0.000000000E+00  6.955704013E-09  1.502637472E-02  1.220719934E+00 
        76  1.250000000E+00  0.000000000E+00 -0.000000000E+00 -8.053253064E-10  8.053253064E-10  0.000000000E+00  0.000000000E+00  0.000000000E+00  6.983533307E-09  1.503955573E-02  1.250120997E+00 
        77  1.279411793E+00  0.000000000E+00 -0.000000000E+00 -6.025101529E-10  6.025101529E-10  0.000000000E+00  0.000000000E+00  0.000000000E+00  6.971292876E-09  1.504701097E-02  1.279527068E+00 
        78  1.308823586E+00  0.000000000E+00 -0.000000000E+00 -4.168456413E-10  4.168456413E-10  0.000000000E+00  0.000000000E+00  0.000000000E+00  6.925766627E-09  1.505193114E-02  1.308937192E+00 
        79  1.338235259E+00  0.000000000E+00 -0.000000000E+00 -2.567367985E-10  2.567367985E-10  0.000000000E+00  0.000000000E+00  0.000000000E+00  6.854927737E-09  1.506696828E-02  1.338341951E+00 
        80  1.367647052E+00  0.000000000E+00 -0.000000000E+00 -1.267113636E-10  1.267113636E-10  0.000000000E+00  0.000000000E+00  0.000000000E+00  6.764527605E-09  1.507748477E-02  1.367746472E+00 
        81  1.397058845E+00  0.000000000E+00 -0.000000000E+00 -3.450600569E-11  3.450600569E-11  0.000000000E+00  0.000000000E+00  0.000000000E+00  6.667469687E-09  1.508506667E-02  1.397156954E+00 
        82  1.426470518E+00  0.000000000E+00 -0.000000000E+00  1.807624536E-11  1.807624536E-11  0.000000000E+00  0.000000000E+00  0.000000000E+00  6.576955869E-09  1.510174666E-02  1.426543355E+00 
        83  1.455882311E+00  0.000000000E+00 -0.000000000E+00  3.082234121E-11  3.082234121E-11  0.000000000E+00  0.000000000E+00  0.000000000E+00  6.503365402E-09  1.512354892E-02  1.455927849E+00 
        84  1.485294104E+00  0.000000000E+00 -0.000000000E+00  3.445678205E-12  3.445678205E-12  0.000000000E+00  0.000000000E+00  0.000000000E+00  6.468298785E-09  1.512971241E-02  1.485321403E+00 
        85  1.500000000E+00  1.515151560E-02  4.535790580E-12 -0.000000000E+00  4.535790580E-12  0.000000000E+00  0.000000000E+00  0.000000000E+00  6.468298785E-09  1.512971241E-02  1.485321403E+00 
        86  1.500000000E+00  4.545454681E-02  3.148983158E-11 -0.000000000E+00  3.148983158E-11  0.000000000E+00  0.000000000E+00  0.000000000E+00  6.429735411E-09  4.542657733E-02  1.485339642E+00 
        87  1.500000000E+00  7.575757802E-02  1.706011200E-11 -0.000000000E+00  1.706011200E-11  0.000000000E+00  0.000000000E+00  0.000000000E+00  6.350589388E-09  7.570779324E-02  1.485366821E+00 
        88  1.500000000E+00  1.060606092E-01 -3.933946224E-11 -0.000000000E+00  3.933945877E-11  0.000000000E+00  0.000000000E+00  0.000000000E+00  6.252970142E-09  1.059944257E-01  1.485368133E+00 
        89  1.500000000E+00  1.363636404E-01 -1.380809772E-10 -0.000000000E+00  1.380809772E-10  0.000000000E+00  0.000000000E+00  0.000000000E+00  6.146878118E-09  1.362714618E-01  1.485339642E+00 
        90  1.500000000E+00  1.666666716E-01 -2.778588193E-10 -0.000000000E+00  2.778588193E-10  0.000000000E+00  0.000000000E+00  0.000000000E+00  6.045732359E-09  1.665642411E-01  1.485322714E+00 
        91  1.500000000E+00  1.969697028E-01 -4.550183563E-10 -0.000000000E+00  4.550183563E-10  0.000000000E+00  0.000000000E+00  0.000000000E+00  5.961862115E-09  1.968548596E-01  1.485254288E+00 
        92  1.500000000E+00  2.272727340E-01 -6.608180669E-10 -0.000000000E+00  6.608180669E-10  0.000000000E+00  0.000000000E+00  0.000000000E+00  5.901403366E-09  2.271443158E-01  1.485214829E+00 
        93  1.500000000E+00  2.575757504E-01 -9.034233917E-10 -0.000000000E+00  9.034233917E-10  0.000000000E+00  0.000000000E+00  0.000000000E+00  5.867266228E-09  2.574608624E-01  1.485175014E+00 
        94  1.500000000E+00  2.878788114E-01 -1.169185748E-09 -0.000000000E+00  1.169185748E-09  0.000000000E+00  0.000000000E+00  0.000000000E+00  5.874939646E-09  2.877570987E-01  1.485115647E+00 
        95  1.500000000E+00  3.181818128E-01 -1.464877775E-09 -0.000000000E+00  1.464877775E-09  0.000000000E+00  0.000000000E+00  0.000000000E+00  5.925893554E-09  3.180534244E-01  1.485095859E+00 
        96  1.500000000E+00  3.484848738E-01 -1.778195258E-09 -0.000000000E+00  1.778195258E-09  0.000000000E+00  0.000000000E+00  0.000000000E+00  6.016517506E-09  3.483631611E-01  1.485075951E+00 
        97  1.500000000E+00  3.787878752E-01 -2.120948972E-09 -0.000000000E+00  2.120948972E-09  0.000000000E+00  0.000000000E+00  0.000000000E+00  6.154128318E-09  3.786628246E-01  1.485046268E+00 
        98  1.500000000E+00  4.090909362E-01 -2.489728423E-09 -0.000000000E+00  2.489728423E-09  0.000000000E+00  0.000000000E+00  0.000000000E+00  6.343938264E-09  4.089625180E-01  1.485036373E+00 
        99  1.500000000E+00  4.393939376E-01 -2.886498152E-09 -0.000000000E+00  2.886498152E-09  0.000000000E+00  0.000000000E+00  0.000000000E+00  6.593479096E-09  4.392688870E-01  1.485026360E+00 
