cellnumber     x-coordinate     y-coordinate     y-wall-shear     x-wall-shear       wall-shear velocity-magnitude       y-velocity       x-velocity         pressure     y-coordinate     x-coordinate 
         1  9.276414730E-16  9.814814925E-01  2.725359423E-07 -0.000000000E+00  2.725359423E-07  0.000000000E+00  0.000000000E+00  0.000000000E+00 -4.373663671E-07  9.814784527E-01  1.852055639E-02 
         2  8.388351506E-16  9.444444180E-01  1.098567566E-07 -0.000000000E+00  1.098567566E-07  0.000000000E+00  0.000000000E+00  0.000000000E+00 -2.512988146E-07  9.444390535E-01  1.852080785E-02 
         3  8.059396732E-16  9.074074030E-01  8.749047709E-08 -0.000000000E+00  8.749047709E-08  0.000000000E+00  0.000000000E+00  0.000000000E+00 -1.426792409E-07  9.073989987E-01  1.852284558E-02 
         4  7.730441958E-16  8.703703880E-01  6.574369138E-08 -0.000000000E+00  6.574369138E-08  0.000000000E+00  0.000000000E+00  0.000000000E+00 -9.297689729E-08  8.703568578E-01  1.852511801E-02 
         5  7.401487184E-16  8.333333731E-01  5.183724028E-08 -0.000000000E+00  5.183724028E-08  0.000000000E+00  0.000000000E+00  0.000000000E+00 -6.632155447E-08  8.333178759E-01  1.852555573E-02 
         6  7.072531880E-16  7.962962985E-01  4.193257652E-08 -0.000000000E+00  4.193257652E-08  0.000000000E+00  0.000000000E+00  0.000000000E+00 -4.817824006E-08  7.962780595E-01  1.852757856E-02 
         7  6.743576577E-16  7.592592239E-01  3.460894860E-08 -0.000000000E+00  3.460894860E-08  0.000000000E+00  0.000000000E+00  0.000000000E+00 -3.602788112E-08  7.592371106E-01  1.852999814E-02 
         8  6.414621802E-16  7.222222090E-01  2.925783527E-08 -0.000000000E+00  2.925783527E-08  0.000000000E+00  0.000000000E+00  0.000000000E+00 -2.727682435E-08  7.221991420E-01  1.853102446E-02 
         9  6.085667028E-16  6.851851940E-01  2.505123398E-08  1.873501354E-16  2.505123398E-08  0.000000000E+00  0.000000000E+00  0.000000000E+00 -2.070687444E-08  6.851601601E-01  1.853300817E-02 
        10  5.756712254E-16  6.481481791E-01  2.164590818E-08 -0.000000000E+00  2.164590818E-08  0.000000000E+00  0.000000000E+00  0.000000000E+00 -1.556358420E-08  6.481221318E-01  1.853489503E-02 
        11  5.427756950E-16  6.111111045E-01  1.876514943E-08 -0.000000000E+00  1.876514943E-08  0.000000000E+00  0.000000000E+00  0.000000000E+00 -1.145779116E-08  6.110857129E-01  1.853593998E-02 
        12  5.098802176E-16  5.740740895E-01  1.625967272E-08 -0.000000000E+00  1.625967272E-08  0.000000000E+00  0.000000000E+00  0.000000000E+00 -8.136614049E-09  5.740485787E-01  1.853680238E-02 
        13  4.769846873E-16  5.370370150E-01  1.402634986E-08 -0.000000000E+00  1.402634986E-08  0.000000000E+00  0.000000000E+00  0.000000000E+00 -5.447738705E-09  5.370125175E-01  1.853825711E-02 
        14  4.440892099E-16  5.000000000E-01  1.200482114E-08 -0.000000000E+00  1.200482114E-08  0.000000000E+00  0.000000000E+00  0.000000000E+00 -3.285517636E-09  4.999762475E-01  1.853904314E-02 
        15  4.111937324E-16  4.629629850E-01  1.015684514E-08 -9.367506770E-17  1.015684514E-08  0.000000000E+00  0.000000000E+00  0.000000000E+00 -1.577150521E-09  4.629395604E-01  1.853945479E-02 
        16  3.782982021E-16  4.259259105E-01  8.461029211E-09 -0.000000000E+00  8.461029211E-09  0.000000000E+00  0.000000000E+00  0.000000000E+00 -2.665100918E-10  4.259051085E-01  1.853922941E-02 
        17  3.454027247E-16  3.888888955E-01  6.906174299E-09 -0.000000000E+00  6.906174299E-09  0.000000000E+00  0.000000000E+00  0.000000000E+00  6.907684424E-10  3.888696134E-01  1.853934117E-02 
        18  3.125072208E-16  3.518518507E-01  5.491350485E-09 -0.000000000E+00  5.491350485E-09  0.000000000E+00  0.000000000E+00  0.000000000E+00  1.335923261E-09  3.518344164E-01  1.853832975E-02 
        19  2.796117169E-16  3.148148060E-01  4.226622607E-09 -0.000000000E+00  4.226622607E-09  0.000000000E+00  0.000000000E+00  0.000000000E+00  1.715963371E-09  3.148007393E-01  1.853669435E-02 
        20  2.467162395E-16  2.777777910E-01  3.080689925E-09 -0.000000000E+00  3.080689925E-09  0.000000000E+00  0.000000000E+00  0.000000000E+00  1.862890286E-09  2.777646780E-01  1.853587665E-02 
        21  2.138207356E-16  2.407407463E-01  2.102521046E-09  4.683753385E-17  2.102521046E-09  0.000000000E+00  0.000000000E+00  0.000000000E+00  1.781968573E-09  2.407294512E-01  1.853412762E-02 
        22  1.809252317E-16  2.037037015E-01  1.298977370E-09 -0.000000000E+00  1.298977370E-09  0.000000000E+00  0.000000000E+00  0.000000000E+00  1.546068162E-09  2.036953866E-01  1.853119209E-02 
        23  1.480297278E-16  1.666666567E-01  6.682513987E-10 -0.000000000E+00  6.682513987E-10  0.000000000E+00  0.000000000E+00  0.000000000E+00  1.211867717E-09  1.666592658E-01  1.853004657E-02 
        24  1.151342371E-16  1.296296269E-01  2.252507902E-10 -0.000000000E+00  2.252507764E-10  0.000000000E+00  0.000000000E+00  0.000000000E+00  8.223896564E-10  1.296242326E-01  1.852793060E-02 
        25  8.223874649E-17  9.259259701E-02 -3.036519994E-11 -0.000000000E+00  3.036519994E-11  0.000000000E+00  0.000000000E+00  0.000000000E+00  4.596450165E-10  9.258991480E-02  1.852434501E-02 
        26  4.934324591E-17  5.555555597E-02 -1.136873373E-10 -0.000000000E+00  1.136873373E-10  0.000000000E+00  0.000000000E+00  0.000000000E+00  1.566071578E-10  5.555330962E-02  1.852265187E-02 
        27  1.644774864E-17  1.851851866E-02 -1.710043218E-11 -0.000000000E+00  1.710043218E-11  0.000000000E+00  0.000000000E+00  0.000000000E+00  0.000000000E+00  1.851808466E-02  1.852021180E-02 
        28  1.851851866E-02  0.000000000E+00 -0.000000000E+00  1.712983227E-11  1.712983227E-11  0.000000000E+00  0.000000000E+00  0.000000000E+00  0.000000000E+00  1.851808466E-02  1.852021180E-02 
        29  5.555555597E-02  0.000000000E+00 -0.000000000E+00  1.143401762E-10  1.143401762E-10  0.000000000E+00  0.000000000E+00  0.000000000E+00 -1.535629818E-10  1.851627417E-02  5.555969104E-02 
        30  9.259259701E-02  0.000000000E+00 -0.000000000E+00  3.455269404E-11  3.455269404E-11  0.000000000E+00  0.000000000E+00  0.000000000E+00 -4.535769815E-10  1.851584017E-02  9.259841591E-02 
        31  1.296296269E-01  0.000000000E+00 -0.000000000E+00 -2.020635881E-10  2.020635742E-10  0.000000000E+00  0.000000000E+00  0.000000000E+00 -8.104168447E-10  1.851375774E-02  1.296399385E-01 
        32  1.666666567E-01  0.000000000E+00 -0.000000000E+00 -5.874104536E-10  5.874104536E-10  0.000000000E+00  0.000000000E+00  0.000000000E+00 -1.192448806E-09  1.851189137E-02  1.666797101E-01 
        33  2.037037015E-01  0.000000000E+00 -0.000000000E+00 -1.102812619E-09  1.102812619E-09  0.000000000E+00  0.000000000E+00  0.000000000E+00 -1.535444882E-09  1.851162128E-02  2.037187964E-01 
        34  2.407407463E-01  0.000000000E+00 -0.000000000E+00 -1.712282094E-09  1.712282094E-09  0.000000000E+00  0.000000000E+00  0.000000000E+00 -1.807543337E-09  1.850987040E-02  2.407606393E-01 
        35  2.777777910E-01  0.000000000E+00 -0.000000000E+00 -2.372197772E-09  2.372197772E-09  0.000000000E+00  0.000000000E+00  0.000000000E+00 -1.993535559E-09  1.850846782E-02  2.778001726E-01 
        36  3.148148060E-01  0.000000000E+00 -0.000000000E+00 -3.098916235E-09  3.098916235E-09  0.000000000E+00  0.000000000E+00  0.000000000E+00 -2.094631357E-09  1.850858331E-02  3.148392737E-01 
        37  3.518518507E-01  0.000000000E+00 -0.000000000E+00 -3.832504536E-09  3.832504536E-09  0.000000000E+00  0.000000000E+00  0.000000000E+00 -2.073706318E-09  1.850764267E-02  3.518803120E-01 
        38  3.888888955E-01  0.000000000E+00 -0.000000000E+00 -4.582885182E-09  4.582885182E-09  0.000000000E+00  0.000000000E+00  0.000000000E+00 -1.940948957E-09  1.850708015E-02  3.889189065E-01 
        39  4.259259105E-01  0.000000000E+00 -0.000000000E+00 -5.308128159E-09  5.308128159E-09  0.000000000E+00  0.000000000E+00  0.000000000E+00 -1.727947341E-09  1.850754023E-02  4.259574413E-01 
        40  4.629629850E-01  0.000000000E+00 -0.000000000E+00 -6.036842581E-09  6.036842581E-09  0.000000000E+00  0.000000000E+00  0.000000000E+00 -1.426560203E-09  1.850741170E-02  4.629966021E-01 
        41  5.000000000E-01  0.000000000E+00 -0.000000000E+00 -6.751792458E-09  6.751792014E-09  0.000000000E+00  0.000000000E+00  0.000000000E+00 -1.039985986E-09  1.850752532E-02  5.000340343E-01 
        42  5.370370150E-01  0.000000000E+00 -0.000000000E+00 -7.452672257E-09  7.452672257E-09  0.000000000E+00  0.000000000E+00  0.000000000E+00 -5.686450755E-10  1.850795560E-02  5.370716453E-01 
        43  5.740740895E-01  0.000000000E+00 -0.000000000E+00 -8.138780316E-09  8.138780316E-09  0.000000000E+00  0.000000000E+00  0.000000000E+00 -1.492529191E-11  1.850749925E-02  5.741077065E-01 
        44  6.111111045E-01  0.000000000E+00 -0.000000000E+00 -8.811005259E-09  8.811006147E-09  0.000000000E+00  0.000000000E+00  0.000000000E+00  6.199813440E-10  1.850782149E-02  6.111434102E-01 
        45  6.481481791E-01  0.000000000E+00 -0.000000000E+00 -9.470880968E-09  9.470880968E-09  0.000000000E+00  0.000000000E+00  0.000000000E+00  1.336531219E-09  1.850724965E-02  6.481790543E-01 
        46  6.851851940E-01  0.000000000E+00 -0.000000000E+00 -1.011979478E-08  1.011979478E-08  0.000000000E+00  0.000000000E+00  0.000000000E+00  2.135937205E-09  1.850797236E-02  6.852147579E-01 
        47  7.222222090E-01  0.000000000E+00 -0.000000000E+00 -1.075953371E-08  1.075953371E-08  0.000000000E+00  0.000000000E+00  0.000000000E+00  3.020530714E-09  1.850851439E-02  7.222514153E-01 
        48  7.592592239E-01  0.000000000E+00 -0.000000000E+00 -1.139152506E-08  1.139152506E-08  0.000000000E+00  0.000000000E+00  0.000000000E+00  3.993396280E-09  1.850891486E-02  7.592883706E-01 
        49  7.962962985E-01  0.000000000E+00 -0.000000000E+00 -1.201688171E-08  1.201688171E-08  0.000000000E+00  0.000000000E+00  0.000000000E+00  5.058506947E-09  1.851005480E-02  7.963246703E-01 
        50  8.333333731E-01  0.000000000E+00 -0.000000000E+00 -1.263620586E-08  1.263620586E-08  0.000000000E+00  0.000000000E+00  0.000000000E+00  6.220470361E-09  1.851111464E-02  8.333607316E-01 
        51  8.703703880E-01  0.000000000E+00 -0.000000000E+00 -1.324937937E-08  1.324937937E-08  0.000000000E+00  0.000000000E+00  0.000000000E+00  7.484804776E-09  1.851171255E-02  8.703973293E-01 
        52  9.074074030E-01  0.000000000E+00 -0.000000000E+00 -1.385527515E-08  1.385527515E-08  0.000000000E+00  0.000000000E+00  0.000000000E+00  8.857234057E-09  1.851323433E-02  9.074329138E-01 
        53  9.444444180E-01  0.000000000E+00 -0.000000000E+00 -1.445170827E-08  1.445170827E-08  0.000000000E+00  0.000000000E+00  0.000000000E+00  1.034405273E-08  1.851418242E-02  9.444689751E-01 
        54  9.814814925E-01  0.000000000E+00 -0.000000000E+00 -1.503511626E-08  1.503511626E-08  0.000000000E+00  0.000000000E+00  0.000000000E+00  1.195169652E-08  1.851464435E-02  9.815055132E-01 
        55  1.018518448E+00  0.000000000E+00 -0.000000000E+00 -1.560004037E-08  1.560004037E-08  0.000000000E+00  0.000000000E+00  0.000000000E+00  1.368623703E-08  1.851686276E-02  1.018541694E+00 
        56  1.055555582E+00  0.000000000E+00 -0.000000000E+00 -1.613963541E-08  1.613963541E-08  0.000000000E+00  0.000000000E+00  0.000000000E+00  1.555297402E-08  1.851840690E-02  1.055577874E+00 
        57  1.092592597E+00  0.000000000E+00 -0.000000000E+00 -1.664455063E-08  1.664455063E-08  0.000000000E+00  0.000000000E+00  0.000000000E+00  1.755650381E-08  1.851967722E-02  1.092614889E+00 
        58  1.129629612E+00  0.000000000E+00 -0.000000000E+00 -1.710376374E-08  1.710376374E-08  0.000000000E+00  0.000000000E+00  0.000000000E+00  1.969870844E-08  1.852196641E-02  1.129650593E+00 
        59  1.166666746E+00  0.000000000E+00 -0.000000000E+00 -1.750328416E-08  1.750328416E-08  0.000000000E+00  0.000000000E+00  0.000000000E+00  2.197992899E-08  1.852328889E-02  1.166686416E+00 
        60  1.203703642E+00  0.000000000E+00 -0.000000000E+00 -1.782841785E-08  1.782841785E-08  0.000000000E+00  0.000000000E+00  0.000000000E+00  2.439635871E-08  1.852403581E-02  1.203722954E+00 
        61  1.240740776E+00  0.000000000E+00 -0.000000000E+00 -1.806111705E-08  1.806111705E-08  0.000000000E+00  0.000000000E+00  0.000000000E+00  2.694066481E-08  1.852625050E-02  1.240758300E+00 
        62  1.277777672E+00  0.000000000E+00 -0.000000000E+00 -1.818116147E-08  1.818116147E-08  0.000000000E+00  0.000000000E+00  0.000000000E+00  2.960174150E-08  1.852769777E-02  1.277794123E+00 
        63  1.314814806E+00  0.000000000E+00 -0.000000000E+00 -1.816113659E-08  1.816113659E-08  0.000000000E+00  0.000000000E+00  0.000000000E+00  3.235388846E-08  1.852858812E-02  1.314830661E+00 
        64  1.351851940E+00  0.000000000E+00 -0.000000000E+00 -1.799166149E-08  1.799166149E-08  0.000000000E+00  0.000000000E+00  0.000000000E+00  3.517363112E-08  1.853092015E-02  1.351866245E+00 
        65  1.388888836E+00  0.000000000E+00 -2.341876693E-17 -1.764753321E-08  1.764753321E-08  0.000000000E+00  0.000000000E+00  0.000000000E+00  3.802363580E-08  1.853219979E-02  1.388902426E+00 
        66  1.425925970E+00  0.000000000E+00 -0.000000000E+00 -1.711133812E-08  1.711133812E-08  0.000000000E+00  0.000000000E+00  0.000000000E+00  4.086080807E-08  1.853308268E-02  1.425939202E+00 
        67  1.462962866E+00  0.000000000E+00 -0.000000000E+00 -1.637129543E-08  1.637129543E-08  0.000000000E+00  0.000000000E+00  0.000000000E+00  4.363467809E-08  1.853484847E-02  1.462974668E+00 
        68  1.500000000E+00  0.000000000E+00 -0.000000000E+00 -1.542121630E-08  1.542121630E-08  0.000000000E+00  0.000000000E+00  0.000000000E+00  4.628813599E-08  1.853591762E-02  1.500010610E+00 
        69  1.537037134E+00  0.000000000E+00 -0.000000000E+00 -1.426384966E-08  1.426384966E-08  0.000000000E+00  0.000000000E+00  0.000000000E+00  4.875971982E-08  1.853640378E-02  1.537047029E+00 
        70  1.574074030E+00  0.000000000E+00 -0.000000000E+00 -1.291260876E-08  1.291260876E-08  0.000000000E+00  0.000000000E+00  0.000000000E+00  5.098666023E-08  1.853682287E-02  1.574081659E+00 
        71  1.611111164E+00  0.000000000E+00 -0.000000000E+00 -1.139303052E-08  1.139303052E-08  0.000000000E+00  0.000000000E+00  0.000000000E+00  5.291001415E-08  1.853695139E-02  1.611117601E+00 
        72  1.648148060E+00  0.000000000E+00 -0.000000000E+00 -9.745092733E-09  9.745092733E-09  0.000000000E+00  0.000000000E+00  0.000000000E+00  5.447673246E-08  1.853629947E-02  1.648153305E+00 
        73  1.685185194E+00  0.000000000E+00 -0.000000000E+00 -8.018539610E-09  8.018538722E-09  0.000000000E+00  0.000000000E+00  0.000000000E+00  5.565170369E-08  1.853597350E-02  1.685188651E+00 
        74  1.722222328E+00  0.000000000E+00 -0.000000000E+00 -6.309559986E-09  6.309559986E-09  0.000000000E+00  0.000000000E+00  0.000000000E+00  5.641880207E-08  1.853587665E-02  1.722225308E+00 
        75  1.759259224E+00  0.000000000E+00 -0.000000000E+00 -4.586790947E-09  4.586790947E-09  0.000000000E+00  0.000000000E+00  0.000000000E+00  5.680396242E-08  1.853542402E-02  1.759261727E+00 
        76  1.796296358E+00  0.000000000E+00 -0.000000000E+00 -3.084308364E-09  3.084308364E-09  0.000000000E+00  0.000000000E+00  0.000000000E+00  5.676701065E-08  1.853346638E-02  1.796297312E+00 
        77  1.833333254E+00  0.000000000E+00 -0.000000000E+00 -1.741845668E-09  1.741845668E-09  0.000000000E+00  0.000000000E+00  0.000000000E+00  5.638781886E-08  1.853189059E-02  1.833334446E+00 
        78  1.870370388E+00  0.000000000E+00 -0.000000000E+00 -7.574612049E-10  7.574611494E-10  0.000000000E+00  0.000000000E+00  0.000000000E+00  5.581508233E-08  1.853002980E-02  1.870370507E+00 
        79  1.907407403E+00  0.000000000E+00  2.341876693E-17 -1.195941124E-10  1.195941124E-10  0.000000000E+00  0.000000000E+00  0.000000000E+00  5.517801682E-08  1.852594689E-02  1.907406807E+00 
        80  1.944444418E+00  0.000000000E+00 -0.000000000E+00  1.620019535E-10  1.620019535E-10  0.000000000E+00  0.000000000E+00  0.000000000E+00  5.464743325E-08  1.852348633E-02  1.944444537E+00 
        81  1.981481552E+00  0.000000000E+00 -0.000000000E+00  4.496783501E-11  4.496783501E-11  0.000000000E+00  0.000000000E+00  0.000000000E+00  5.429916783E-08  1.852097921E-02  1.981480718E+00 
        82  2.000000000E+00  1.851851866E-02  3.883286054E-11 -0.000000000E+00  3.883286054E-11  0.000000000E+00  0.000000000E+00  0.000000000E+00  5.429916783E-08  1.852097921E-02  1.981480718E+00 
        83  2.000000000E+00  5.555555597E-02  1.669077654E-10 -0.000000000E+00  1.669077654E-10  0.000000000E+00  0.000000000E+00  0.000000000E+00  5.396832847E-08  5.556052178E-02  1.981481671E+00 
        84  2.000000000E+00  9.259259701E-02 -9.140563306E-11 -0.000000000E+00  9.140563306E-11  0.000000000E+00  0.000000000E+00  0.000000000E+00  5.340318054E-08  9.260001779E-02  1.981480837E+00 
        85  2.000000000E+00  1.296296269E-01 -6.722775114E-10 -0.000000000E+00  6.722775114E-10  0.000000000E+00  0.000000000E+00  0.000000000E+00  5.272971393E-08  1.296418905E-01  1.981480718E+00 
        86  2.000000000E+00  1.666666567E-01 -1.571359043E-09 -0.000000000E+00  1.571359043E-09  0.000000000E+00  0.000000000E+00  0.000000000E+00  5.203637699E-08  1.666810215E-01  1.981481075E+00 
        87  2.000000000E+00  2.037037015E-01 -2.761526785E-09 -0.000000000E+00  2.761526785E-09  0.000000000E+00  0.000000000E+00  0.000000000E+00  5.145047055E-08  2.037203908E-01  1.981479883E+00 
        88  2.000000000E+00  2.407407463E-01 -4.154134814E-09 -0.000000000E+00  4.154134814E-09  0.000000000E+00  0.000000000E+00  0.000000000E+00  5.101658829E-08  2.407612801E-01  1.981478691E+00 
        89  2.000000000E+00  2.777777910E-01 -5.837918593E-09 -0.000000000E+00  5.837918593E-09  0.000000000E+00  0.000000000E+00  0.000000000E+00  5.075022358E-08  2.777993381E-01  1.981478095E+00 
        90  2.000000000E+00  3.148148060E-01 -7.694511694E-09 -0.000000000E+00  7.694511694E-09  0.000000000E+00  0.000000000E+00  0.000000000E+00  5.077468046E-08  3.148381412E-01  1.981476545E+00 
        91  2.000000000E+00  3.518518507E-01 -9.815176227E-09 -0.000000000E+00  9.815176227E-09  0.000000000E+00  0.000000000E+00  0.000000000E+00  5.112676149E-08  3.518767357E-01  1.981474400E+00 
        92  2.000000000E+00  3.888888955E-01 -1.209833389E-08 -0.000000000E+00  1.209833389E-08  0.000000000E+00  0.000000000E+00  0.000000000E+00  5.177535556E-08  3.889133036E-01  1.981472969E+00 
        93  2.000000000E+00  4.259259105E-01 -1.468163013E-08 -0.000000000E+00  1.468163013E-08  0.000000000E+00  0.000000000E+00  0.000000000E+00  5.281625093E-08  4.259508550E-01  1.981471419E+00 
        94  2.000000000E+00  4.629629850E-01 -1.755447165E-08 -0.000000000E+00  1.755447165E-08  0.000000000E+00  0.000000000E+00  0.000000000E+00  5.434798922E-08  4.629859924E-01  1.981469631E+00 
        95  2.000000000E+00  5.000000000E-01 -2.075986849E-08 -0.000000000E+00  2.075986849E-08  0.000000000E+00  0.000000000E+00  0.000000000E+00  5.649648571E-08  5.000211000E-01  1.981468320E+00 
        96  2.000000000E+00  5.370370150E-01 -2.434090618E-08 -1.873501354E-16  2.434090618E-08  0.000000000E+00  0.000000000E+00  0.000000000E+00  5.941517145E-08  5.370566845E-01  1.981468081E+00 
        97  2.000000000E+00  5.740740895E-01 -2.835501967E-08 -0.000000000E+00  2.835501967E-08  0.000000000E+00  0.000000000E+00  0.000000000E+00  6.330572688E-08  5.740898848E-01  1.981467485E+00 
        98  2.000000000E+00  6.111111045E-01 -3.287566486E-08 -0.000000000E+00  3.287566486E-08  0.000000000E+00  0.000000000E+00  0.000000000E+00  6.843681888E-08  6.111250520E-01  1.981467009E+00 
        99  2.000000000E+00  6.481481791E-01 -3.800429482E-08 -0.000000000E+00  3.800429482E-08  0.000000000E+00  0.000000000E+00  0.000000000E+00  7.517237322E-08  6.481601596E-01  1.981467724E+00 
