cellnumber     x-coordinate     y-coordinate     y-wall-shear     x-wall-shear       wall-shear velocity-magnitude       y-velocity       x-velocity         pressure     y-coordinate     x-coordinate 
         1  9.276414730E-16  9.814814925E-01  1.806104137E-06 -0.000000000E+00  1.806104137E-06  0.000000000E+00  0.000000000E+00  0.000000000E+00 -2.070908522E-06  9.814784527E-01  1.852055639E-02 
         2  8.388351506E-16  9.444444180E-01  5.043216333E-07 -0.000000000E+00  5.043216333E-07  0.000000000E+00  0.000000000E+00  0.000000000E+00 -1.089346597E-06  9.444390535E-01  1.852080785E-02 
         3  8.059396732E-16  9.074074030E-01  3.684027945E-07 -0.000000000E+00  3.684027945E-07  0.000000000E+00  0.000000000E+00  0.000000000E+00 -5.333529884E-07  9.073989987E-01  1.852284558E-02 
         4  7.730441958E-16  8.703703880E-01  2.622739714E-07 -0.000000000E+00  2.622739714E-07  0.000000000E+00  0.000000000E+00  0.000000000E+00 -2.897292859E-07  8.703568578E-01  1.852511801E-02 
         5  7.401487184E-16  8.333333731E-01  1.899981470E-07 -2.997602166E-15  1.899981470E-07  0.000000000E+00  0.000000000E+00  0.000000000E+00 -1.710225348E-07  8.333178759E-01  1.852555573E-02 
         6  7.072531880E-16  7.962962985E-01  1.416666180E-07 -0.000000000E+00  1.416666180E-07  0.000000000E+00  0.000000000E+00  0.000000000E+00 -9.179172622E-08  7.962780595E-01  1.852757856E-02 
         7  6.743576577E-16  7.592592239E-01  1.047841209E-07 -0.000000000E+00  1.047841209E-07  0.000000000E+00  0.000000000E+00  0.000000000E+00 -4.356503425E-08  7.592371106E-01  1.852999814E-02 
         8  6.414621802E-16  7.222222090E-01  7.807177127E-08 -0.000000000E+00  7.807177127E-08  0.000000000E+00  0.000000000E+00  0.000000000E+00 -1.182711706E-08  7.221991420E-01  1.853102446E-02 
         9  6.085667028E-16  6.851851940E-01  5.705552653E-08 -0.000000000E+00  5.705552653E-08  0.000000000E+00  0.000000000E+00  0.000000000E+00  7.879619623E-09  6.851601601E-01  1.853300817E-02 
        10  5.756712254E-16  6.481481791E-01  4.084053984E-08  1.498801083E-15  4.084053984E-08  0.000000000E+00  0.000000000E+00  0.000000000E+00  1.981650755E-08  6.481221318E-01  1.853489503E-02 
        11  5.427756950E-16  6.111111045E-01  2.824563516E-08 -0.000000000E+00  2.824563516E-08  0.000000000E+00  0.000000000E+00  0.000000000E+00  2.616332928E-08  6.110857129E-01  1.853593998E-02 
        12  5.098802176E-16  5.740740895E-01  1.810590611E-08 -0.000000000E+00  1.810590788E-08  0.000000000E+00  0.000000000E+00  0.000000000E+00  2.884019779E-08  5.740485787E-01  1.853680238E-02 
        13  4.769846873E-16  5.370370150E-01  1.077254375E-08 -0.000000000E+00  1.077254375E-08  0.000000000E+00  0.000000000E+00  0.000000000E+00  2.871354354E-08  5.370125175E-01  1.853825711E-02 
        14  4.440892099E-16  5.000000000E-01  4.844027401E-09 -0.000000000E+00  4.844027401E-09  0.000000000E+00  0.000000000E+00  0.000000000E+00  2.674457988E-08  4.999762475E-01  1.853904314E-02 
        15  4.111937324E-16  4.629629850E-01  7.051861317E-10 -0.000000000E+00  7.051861317E-10  0.000000000E+00  0.000000000E+00  0.000000000E+00  2.395654874E-08  4.629395604E-01  1.853945479E-02 
        16  3.782982021E-16  4.259259105E-01 -2.249892717E-09 -0.000000000E+00  2.249892717E-09  0.000000000E+00  0.000000000E+00  0.000000000E+00  2.044433955E-08  4.259051085E-01  1.853922941E-02 
        17  3.454027247E-16  3.888888955E-01 -4.225491512E-09 -0.000000000E+00  4.225491512E-09  0.000000000E+00  0.000000000E+00  0.000000000E+00  1.702419539E-08  3.888696134E-01  1.853934117E-02 
        18  3.125072208E-16  3.518518507E-01 -5.372830625E-09 -0.000000000E+00  5.372830625E-09  0.000000000E+00  0.000000000E+00  0.000000000E+00  1.328149324E-08  3.518344164E-01  1.853832975E-02 
        19  2.796117169E-16  3.148148060E-01 -5.769647871E-09 -0.000000000E+00  5.769647871E-09  0.000000000E+00  0.000000000E+00  0.000000000E+00  1.000532368E-08  3.148007393E-01  1.853669435E-02 
        20  2.467162395E-16  2.777777910E-01 -5.719855700E-09 -0.000000000E+00  5.719855700E-09  0.000000000E+00  0.000000000E+00  0.000000000E+00  7.017618486E-09  2.777646780E-01  1.853587665E-02 
        21  2.138207356E-16  2.407407463E-01 -5.173523832E-09 -0.000000000E+00  5.173523832E-09  0.000000000E+00  0.000000000E+00  0.000000000E+00  4.533863507E-09  2.407294512E-01  1.853412762E-02 
        22  1.809252317E-16  2.037037015E-01 -4.335033665E-09 -4.683753385E-17  4.335033665E-09  0.000000000E+00  0.000000000E+00  0.000000000E+00  2.545285982E-09  2.036953866E-01  1.853119209E-02 
        23  1.480297278E-16  1.666666567E-01 -3.302637053E-09 -0.000000000E+00  3.302637053E-09  0.000000000E+00  0.000000000E+00  0.000000000E+00  1.102261948E-09  1.666592658E-01  1.853004657E-02 
        24  1.151342371E-16  1.296296269E-01 -2.216790307E-09 -0.000000000E+00  2.216790307E-09  0.000000000E+00  0.000000000E+00  0.000000000E+00  2.301792507E-10  1.296242326E-01  1.852793060E-02 
        25  8.223874649E-17  9.259259701E-02 -1.151408635E-09 -4.683753385E-17  1.151408746E-09  0.000000000E+00  0.000000000E+00  0.000000000E+00 -1.552430962E-10  9.258991480E-02  1.852434501E-02 
        26  4.934324591E-17  5.555555597E-02 -4.146274435E-10 -0.000000000E+00  4.146274435E-10  0.000000000E+00  0.000000000E+00  0.000000000E+00 -1.043908016E-10  5.555330962E-02  1.852265187E-02 
        27  1.644774864E-17  1.851851866E-02  7.050300881E-12 -0.000000000E+00  7.050300881E-12  0.000000000E+00  0.000000000E+00  0.000000000E+00  0.000000000E+00  1.851808466E-02  1.852021180E-02 
        28  1.851851866E-02  0.000000000E+00 -0.000000000E+00 -6.815656112E-12  6.815655679E-12  0.000000000E+00  0.000000000E+00  0.000000000E+00  0.000000000E+00  1.851808466E-02  1.852021180E-02 
        29  5.555555597E-02  0.000000000E+00 -0.000000000E+00  4.126202990E-10  4.126203268E-10  0.000000000E+00  0.000000000E+00  0.000000000E+00  1.051505619E-10  1.851627417E-02  5.555969104E-02 
        30  9.259259701E-02  0.000000000E+00 -0.000000000E+00  1.146941653E-09  1.146941764E-09  0.000000000E+00  0.000000000E+00  0.000000000E+00  1.645960312E-10  1.851584017E-02  9.259841591E-02 
        31  1.296296269E-01  0.000000000E+00 -0.000000000E+00  2.202816818E-09  2.202816818E-09  0.000000000E+00  0.000000000E+00  0.000000000E+00 -1.971600105E-10  1.851375774E-02  1.296399385E-01 
        32  1.666666567E-01  0.000000000E+00 -0.000000000E+00  3.288882500E-09  3.288882500E-09  0.000000000E+00  0.000000000E+00  0.000000000E+00 -1.015959539E-09  1.851189137E-02  1.666797101E-01 
        33  2.037037015E-01  0.000000000E+00 -0.000000000E+00  4.358382544E-09  4.358382100E-09  0.000000000E+00  0.000000000E+00  0.000000000E+00 -2.336123739E-09  1.851162128E-02  2.037187964E-01 
        34  2.407407463E-01  0.000000000E+00 -0.000000000E+00  5.322847052E-09  5.322847052E-09  0.000000000E+00  0.000000000E+00  0.000000000E+00 -4.124715236E-09  1.850987040E-02  2.407606393E-01 
        35  2.777777910E-01  0.000000000E+00 -0.000000000E+00  6.146914533E-09  6.146914533E-09  0.000000000E+00  0.000000000E+00  0.000000000E+00 -6.364852201E-09  1.850846782E-02  2.778001726E-01 
        36  3.148148060E-01  0.000000000E+00 -0.000000000E+00  6.813016817E-09  6.813016817E-09  0.000000000E+00  0.000000000E+00  0.000000000E+00 -9.008495283E-09  1.850858331E-02  3.148392737E-01 
        37  3.518518507E-01  0.000000000E+00 -0.000000000E+00  7.307104255E-09  7.307104255E-09  0.000000000E+00  0.000000000E+00  0.000000000E+00 -1.204356437E-08  1.850764267E-02  3.518803120E-01 
        38  3.888888955E-01  0.000000000E+00 -0.000000000E+00  7.636623778E-09  7.636623778E-09  0.000000000E+00  0.000000000E+00  0.000000000E+00 -1.545926409E-08  1.850708015E-02  3.889189065E-01 
        39  4.259259105E-01  0.000000000E+00 -0.000000000E+00  7.768999666E-09  7.768999666E-09  0.000000000E+00  0.000000000E+00  0.000000000E+00 -1.928234816E-08  1.850754023E-02  4.259574413E-01 
        40  4.629629850E-01  0.000000000E+00 -0.000000000E+00  7.689461512E-09  7.689461512E-09  0.000000000E+00  0.000000000E+00  0.000000000E+00 -2.345095140E-08  1.850741170E-02  4.629966021E-01 
        41  5.000000000E-01  0.000000000E+00 -0.000000000E+00  7.445519312E-09  7.445519312E-09  0.000000000E+00  0.000000000E+00  0.000000000E+00 -2.803738752E-08  1.850752532E-02  5.000340343E-01 
        42  5.370370150E-01  0.000000000E+00 -0.000000000E+00  7.030922511E-09  7.030922511E-09  0.000000000E+00  0.000000000E+00  0.000000000E+00 -3.307940233E-08  1.850795560E-02  5.370716453E-01 
        43  5.740740895E-01  0.000000000E+00 -0.000000000E+00  6.347857795E-09  6.347857795E-09  0.000000000E+00  0.000000000E+00  0.000000000E+00 -3.882755806E-08  1.850749925E-02  5.741077065E-01 
        44  6.111111045E-01  0.000000000E+00 -0.000000000E+00  5.254067847E-09  5.254067847E-09  0.000000000E+00  0.000000000E+00  0.000000000E+00 -4.505670859E-08  1.850782149E-02  6.111434102E-01 
        45  6.481481791E-01  0.000000000E+00 -0.000000000E+00  3.885475497E-09  3.885475497E-09  0.000000000E+00  0.000000000E+00  0.000000000E+00 -5.179084539E-08  1.850724965E-02  6.481790543E-01 
        46  6.851851940E-01  0.000000000E+00 -0.000000000E+00  2.176675507E-09  2.176675507E-09  0.000000000E+00  0.000000000E+00  0.000000000E+00 -5.954745319E-08  1.850797236E-02  6.852147579E-01 
        47  7.222222090E-01  0.000000000E+00 -0.000000000E+00 -3.394400316E-10  3.394400316E-10  0.000000000E+00  0.000000000E+00  0.000000000E+00 -6.831915300E-08  1.850851439E-02  7.222514153E-01 
        48  7.592592239E-01  0.000000000E+00 -1.873501354E-16 -3.565574724E-09  3.565574724E-09  0.000000000E+00  0.000000000E+00  0.000000000E+00 -7.753762077E-08  1.850891486E-02  7.592883706E-01 
        49  7.962962985E-01  0.000000000E+00 -0.000000000E+00 -7.509399325E-09  7.509399325E-09  0.000000000E+00  0.000000000E+00  0.000000000E+00 -8.790578931E-08  1.851005480E-02  7.963246703E-01 
        50  8.333333731E-01  0.000000000E+00 -0.000000000E+00 -1.257058369E-08  1.257058457E-08  0.000000000E+00  0.000000000E+00  0.000000000E+00 -9.925015121E-08  1.851111464E-02  8.333607316E-01 
        51  8.703703880E-01  0.000000000E+00 -3.747002708E-16 -1.886069434E-08  1.886069434E-08  0.000000000E+00  0.000000000E+00  0.000000000E+00 -1.114873385E-07  1.851171255E-02  8.703973293E-01 
        52  9.074074030E-01  0.000000000E+00 -0.000000000E+00 -2.658107512E-08  2.658107512E-08  0.000000000E+00  0.000000000E+00  0.000000000E+00 -1.244853820E-07  1.851323433E-02  9.074329138E-01 
        53  9.444444180E-01  0.000000000E+00 -0.000000000E+00 -3.592271725E-08  3.592271725E-08  0.000000000E+00  0.000000000E+00  0.000000000E+00 -1.380278718E-07  1.851418242E-02  9.444689751E-01 
        54  9.814814925E-01  0.000000000E+00 -0.000000000E+00 -4.706673451E-08  4.706673096E-08  0.000000000E+00  0.000000000E+00  0.000000000E+00 -1.517541079E-07  1.851464435E-02  9.815055132E-01 
        55  1.018518448E+00  0.000000000E+00 -0.000000000E+00 -6.014617071E-08  6.014617071E-08  0.000000000E+00  0.000000000E+00  0.000000000E+00 -1.651293360E-07  1.851686276E-02  1.018541694E+00 
        56  1.055555582E+00  0.000000000E+00 -0.000000000E+00 -7.524795365E-08  7.524795365E-08  0.000000000E+00  0.000000000E+00  0.000000000E+00 -1.774432832E-07  1.851840690E-02  1.055577874E+00 
        57  1.092592597E+00  0.000000000E+00 -0.000000000E+00 -9.229569287E-08  9.229569287E-08  0.000000000E+00  0.000000000E+00  0.000000000E+00 -1.877666165E-07  1.851967722E-02  1.092614889E+00 
        58  1.129629612E+00  0.000000000E+00 -0.000000000E+00 -1.112913637E-07  1.112913637E-07  0.000000000E+00  0.000000000E+00  0.000000000E+00 -1.950507169E-07  1.852196641E-02  1.129650593E+00 
        59  1.166666746E+00  0.000000000E+00 -0.000000000E+00 -1.318468321E-07  1.318468321E-07  0.000000000E+00  0.000000000E+00  0.000000000E+00 -1.977862496E-07  1.852328889E-02  1.166686416E+00 
        60  1.203703642E+00  0.000000000E+00 -0.000000000E+00 -1.536280649E-07  1.536280649E-07  0.000000000E+00  0.000000000E+00  0.000000000E+00 -1.939573764E-07  1.852403581E-02  1.203722954E+00 
        61  1.240740776E+00  0.000000000E+00 -0.000000000E+00 -1.759157158E-07  1.759157158E-07  0.000000000E+00  0.000000000E+00  0.000000000E+00 -1.825412852E-07  1.852625050E-02  1.240758300E+00 
        62  1.277777672E+00  0.000000000E+00 -0.000000000E+00 -1.977859370E-07  1.977859370E-07  0.000000000E+00  0.000000000E+00  0.000000000E+00 -1.619810490E-07  1.852769777E-02  1.277794123E+00 
        63  1.314814806E+00  0.000000000E+00 -0.000000000E+00 -2.182692214E-07  2.182692214E-07  0.000000000E+00  0.000000000E+00  0.000000000E+00 -1.306874680E-07  1.852858812E-02  1.314830661E+00 
        64  1.351851940E+00  0.000000000E+00 -0.000000000E+00 -2.362520348E-07  2.362520348E-07  0.000000000E+00  0.000000000E+00  0.000000000E+00 -8.796232720E-08  1.853092015E-02  1.351866245E+00 
        65  1.388888836E+00  0.000000000E+00 -0.000000000E+00 -2.503021221E-07  2.503021221E-07  0.000000000E+00  0.000000000E+00  0.000000000E+00 -3.336026921E-08  1.853219979E-02  1.388902426E+00 
        66  1.425925970E+00  0.000000000E+00 -0.000000000E+00 -2.582872014E-07  2.582872014E-07  0.000000000E+00  0.000000000E+00  0.000000000E+00  3.248123193E-08  1.853308268E-02  1.425939202E+00 
        67  1.462962866E+00  0.000000000E+00 -0.000000000E+00 -2.598269475E-07  2.598269475E-07  0.000000000E+00  0.000000000E+00  0.000000000E+00  1.068365378E-07  1.853484847E-02  1.462974668E+00 
        68  1.500000000E+00  0.000000000E+00 -0.000000000E+00 -2.538191666E-07  2.538191666E-07  0.000000000E+00  0.000000000E+00  0.000000000E+00  1.863621293E-07  1.853591762E-02  1.500010610E+00 
        69  1.537037134E+00  0.000000000E+00 -0.000000000E+00 -2.398980712E-07  2.398980712E-07  0.000000000E+00  0.000000000E+00  0.000000000E+00  2.674782422E-07  1.853640378E-02  1.537047029E+00 
        70  1.574074030E+00  0.000000000E+00 -0.000000000E+00 -2.181215280E-07  2.181215280E-07  0.000000000E+00  0.000000000E+00  0.000000000E+00  3.451561952E-07  1.853682287E-02  1.574081659E+00 
        71  1.611111164E+00  0.000000000E+00 -0.000000000E+00 -1.895378432E-07  1.895378432E-07  0.000000000E+00  0.000000000E+00  0.000000000E+00  4.144104651E-07  1.853695139E-02  1.611117601E+00 
        72  1.648148060E+00  0.000000000E+00 -0.000000000E+00 -1.562154210E-07  1.562154210E-07  0.000000000E+00  0.000000000E+00  0.000000000E+00  4.709224868E-07  1.853629947E-02  1.648153305E+00 
        73  1.685185194E+00  0.000000000E+00 -0.000000000E+00 -1.206618663E-07  1.206618663E-07  0.000000000E+00  0.000000000E+00  0.000000000E+00  5.121630693E-07  1.853597350E-02  1.685188651E+00 
        74  1.722222328E+00  0.000000000E+00 -0.000000000E+00 -8.537515583E-08  8.537515583E-08  0.000000000E+00  0.000000000E+00  0.000000000E+00  5.371949214E-07  1.853587665E-02  1.722225308E+00 
        75  1.759259224E+00  0.000000000E+00 -0.000000000E+00 -5.235440526E-08  5.235440170E-08  0.000000000E+00  0.000000000E+00  0.000000000E+00  5.471393933E-07  1.853542402E-02  1.759261727E+00 
        76  1.796296358E+00  0.000000000E+00 -0.000000000E+00 -2.667941068E-08  2.667941068E-08  0.000000000E+00  0.000000000E+00  0.000000000E+00  5.441017947E-07  1.853346638E-02  1.796297312E+00 
        77  1.833333254E+00  0.000000000E+00 -0.000000000E+00 -7.426073534E-09  7.426073534E-09  0.000000000E+00  0.000000000E+00  0.000000000E+00  5.335819537E-07  1.853189059E-02  1.833334446E+00 
        78  1.870370388E+00  0.000000000E+00 -3.747002708E-16  3.148479033E-09  3.148479033E-09  0.000000000E+00  0.000000000E+00  0.000000000E+00  5.198568260E-07  1.853002980E-02  1.870370507E+00 
        79  1.907407403E+00  0.000000000E+00 -0.000000000E+00  7.190223972E-09  7.190223972E-09  0.000000000E+00  0.000000000E+00  0.000000000E+00  5.079037351E-07  1.852594689E-02  1.907406807E+00 
        80  1.944444418E+00  0.000000000E+00 -0.000000000E+00  5.468294262E-09  5.468294262E-09  0.000000000E+00  0.000000000E+00  0.000000000E+00  4.983945701E-07  1.852348633E-02  1.944444537E+00 
        81  1.981481552E+00  0.000000000E+00 -0.000000000E+00  3.260600678E-10  3.260600678E-10  0.000000000E+00  0.000000000E+00  0.000000000E+00  4.947119692E-07  1.852097921E-02  1.981480718E+00 
        82  2.000000000E+00  1.851851866E-02  6.051710244E-10  1.873501354E-16  6.051710244E-10  0.000000000E+00  0.000000000E+00  0.000000000E+00  4.947119692E-07  1.852097921E-02  1.981480718E+00 
        83  2.000000000E+00  5.555555597E-02  5.293885774E-09  1.873501354E-16  5.293885774E-09  0.000000000E+00  0.000000000E+00  0.000000000E+00  4.905369906E-07  5.556052178E-02  1.981481671E+00 
        84  2.000000000E+00  9.259259701E-02  8.329568146E-09 -0.000000000E+00  8.329568146E-09  0.000000000E+00  0.000000000E+00  0.000000000E+00  4.821984589E-07  9.260001779E-02  1.981480837E+00 
        85  2.000000000E+00  1.296296269E-01  8.070491830E-09 -0.000000000E+00  8.070491830E-09  0.000000000E+00  0.000000000E+00  0.000000000E+00  4.673099170E-07  1.296418905E-01  1.981480718E+00 
        86  2.000000000E+00  1.666666567E-01  4.738564208E-09 -0.000000000E+00  4.738564208E-09  0.000000000E+00  0.000000000E+00  0.000000000E+00  4.493029166E-07  1.666810215E-01  1.981481075E+00 
        87  2.000000000E+00  2.037037015E-01 -2.486940875E-09 -0.000000000E+00  2.486940875E-09  0.000000000E+00  0.000000000E+00  0.000000000E+00  4.262365678E-07  2.037203908E-01  1.981479883E+00 
        88  2.000000000E+00  2.407407463E-01 -1.346844503E-08 -0.000000000E+00  1.346844503E-08  0.000000000E+00  0.000000000E+00  0.000000000E+00  4.012875934E-07  2.407612801E-01  1.981478691E+00 
        89  2.000000000E+00  2.777777910E-01 -2.816798528E-08 -0.000000000E+00  2.816798528E-08  0.000000000E+00  0.000000000E+00  0.000000000E+00  3.715403523E-07  2.777993381E-01  1.981478095E+00 
        90  2.000000000E+00  3.148148060E-01 -4.822670974E-08 -0.000000000E+00  4.822670974E-08  0.000000000E+00  0.000000000E+00  0.000000000E+00  3.386170988E-07  3.148381412E-01  1.981476545E+00 
        91  2.000000000E+00  3.518518507E-01 -7.395264845E-08 -1.498801083E-15  7.395264845E-08  0.000000000E+00  0.000000000E+00  0.000000000E+00  3.030269511E-07  3.518767357E-01  1.981474400E+00 
        92  2.000000000E+00  3.888888955E-01 -1.061825117E-07 -0.000000000E+00  1.061825188E-07  0.000000000E+00  0.000000000E+00  0.000000000E+00  2.663380485E-07  3.889133036E-01  1.981472969E+00 
        93  2.000000000E+00  4.259259105E-01 -1.454662168E-07 -0.000000000E+00  1.454662168E-07  0.000000000E+00  0.000000000E+00  0.000000000E+00  2.307848490E-07  4.259508550E-01  1.981471419E+00 
        94  2.000000000E+00  4.629629850E-01 -1.918976125E-07 -0.000000000E+00  1.918976125E-07  0.000000000E+00  0.000000000E+00  0.000000000E+00  1.998655534E-07  4.629859924E-01  1.981469631E+00 
        95  2.000000000E+00  5.000000000E-01 -2.464505542E-07 -2.997602166E-15  2.464505542E-07  0.000000000E+00  0.000000000E+00  0.000000000E+00  1.780106658E-07  5.000211000E-01  1.981468320E+00 
        96  2.000000000E+00  5.370370150E-01 -3.073489836E-07 -0.000000000E+00  3.073489836E-07  0.000000000E+00  0.000000000E+00  0.000000000E+00  1.720316618E-07  5.370566845E-01  1.981468081E+00 
        97  2.000000000E+00  5.740740895E-01 -3.759450919E-07 -0.000000000E+00  3.759450919E-07  0.000000000E+00  0.000000000E+00  0.000000000E+00  1.896174666E-07  5.740898848E-01  1.981467485E+00 
        98  2.000000000E+00  6.111111045E-01 -4.526163480E-07 -0.000000000E+00  4.526163480E-07  0.000000000E+00  0.000000000E+00  0.000000000E+00  2.397591459E-07  6.111250520E-01  1.981467009E+00 
        99  2.000000000E+00  6.481481791E-01 -5.358226076E-07 -0.000000000E+00  5.358226076E-07  0.000000000E+00  0.000000000E+00  0.000000000E+00  3.344354980E-07  6.481601596E-01  1.981467724E+00 
