cellnumber     x-coordinate     y-coordinate     y-wall-shear     x-wall-shear       wall-shear velocity-magnitude       y-velocity       x-velocity         pressure     y-coordinate     x-coordinate 
         1  9.317533944E-16  9.861111045E-01  5.693866569E-07 -0.000000000E+00  5.693866569E-07  0.000000000E+00  0.000000000E+00  0.000000000E+00 -9.142259501E-07  9.861333370E-01  1.354842074E-02 
         2  8.511709679E-16  9.583333135E-01  2.260799192E-07 -0.000000000E+00  2.260799192E-07  0.000000000E+00  0.000000000E+00  0.000000000E+00 -5.237506571E-07  9.583886266E-01  1.357317064E-02 
         3  8.264993863E-16  9.305555820E-01  1.776546128E-07 -0.000000000E+00  1.776546128E-07  0.000000000E+00  0.000000000E+00  0.000000000E+00 -2.994862882E-07  9.306330681E-01  1.357992459E-02 
         4  8.018277518E-16  9.027777910E-01  1.320819933E-07 -0.000000000E+00  1.320819933E-07  0.000000000E+00  0.000000000E+00  0.000000000E+00 -1.985687135E-07  9.028995037E-01  1.360805519E-02 
         5  7.771561172E-16  8.750000000E-01  1.027745995E-07 -0.000000000E+00  1.027745995E-07  0.000000000E+00  0.000000000E+00  0.000000000E+00 -1.454333471E-07  8.751382828E-01  1.362042781E-02 
         6  7.524844827E-16  8.472222090E-01  8.254696837E-08 -0.000000000E+00  8.254696837E-08  0.000000000E+00  0.000000000E+00  0.000000000E+00 -1.101082816E-07  8.473715782E-01  1.362380758E-02 
         7  7.278128482E-16  8.194444180E-01  6.800805608E-08 -0.000000000E+00  6.800805608E-08  0.000000000E+00  0.000000000E+00  0.000000000E+00 -8.712113697E-08  8.196159005E-01  1.363787241E-02 
         8  7.031412666E-16  7.916666865E-01  5.782208135E-08 -0.000000000E+00  5.782208490E-08  0.000000000E+00  0.000000000E+00  0.000000000E+00 -7.087056275E-08  7.918463945E-01  1.364406012E-02 
         9  6.784696320E-16  7.638888955E-01  5.022448946E-08 -0.000000000E+00  5.022448946E-08  0.000000000E+00  0.000000000E+00  0.000000000E+00 -5.884831111E-08  7.640741467E-01  1.364575140E-02 
        10  6.537979975E-16  7.361111045E-01  4.445621826E-08 -0.000000000E+00  4.445621826E-08  0.000000000E+00  0.000000000E+00  0.000000000E+00 -4.941477627E-08  7.363074422E-01  1.365278568E-02 
        11  6.291263630E-16  7.083333135E-01  3.988633424E-08  2.498001805E-16  3.988633424E-08  0.000000000E+00  0.000000000E+00  0.000000000E+00 -4.173725898E-08  7.085338235E-01  1.365588047E-02 
        12  6.044547814E-16  6.805555820E-01  3.615832966E-08 -0.000000000E+00  3.615832611E-08  0.000000000E+00  0.000000000E+00  0.000000000E+00 -3.527333803E-08  6.807587743E-01  1.365672797E-02 
        13  5.797831468E-16  6.527777910E-01  3.300235818E-08 -0.000000000E+00  3.300235818E-08  0.000000000E+00  0.000000000E+00  0.000000000E+00 -2.970251778E-08  6.529865265E-01  1.366024558E-02 
        14  5.551115123E-16  6.250000000E-01  3.024648265E-08 -0.000000000E+00  3.024648265E-08  0.000000000E+00  0.000000000E+00  0.000000000E+00 -2.481072237E-08  6.252108216E-01  1.366179343E-02 
        15  5.304398778E-16  5.972222090E-01  2.776482511E-08 -0.000000000E+00  2.776482511E-08  0.000000000E+00  0.000000000E+00  0.000000000E+00 -2.046946612E-08  5.974344611E-01  1.366221812E-02 
        16  5.057682432E-16  5.694444180E-01  2.547278832E-08 -0.000000000E+00  2.547278832E-08  0.000000000E+00  0.000000000E+00  0.000000000E+00 -1.659377169E-08  5.696594119E-01  1.366397832E-02 
        17  4.810966617E-16  5.416666865E-01  2.331159088E-08 -0.000000000E+00  2.331159088E-08  0.000000000E+00  0.000000000E+00  0.000000000E+00 -1.313004550E-08  5.418826938E-01  1.366475224E-02 
        18  4.564250271E-16  5.138888955E-01  2.124284570E-08 -0.000000000E+00  2.124284570E-08  0.000000000E+00  0.000000000E+00  0.000000000E+00 -1.004493999E-08  5.141056180E-01  1.366496459E-02 
        19  4.317533926E-16  4.861111045E-01  1.924178683E-08 -0.000000000E+00  1.924178683E-08  0.000000000E+00  0.000000000E+00  0.000000000E+00 -7.317334738E-09  4.863291979E-01  1.366584562E-02 
        20  4.070817580E-16  4.583333135E-01  1.729513599E-08 -0.000000000E+00  1.729513599E-08  0.000000000E+00  0.000000000E+00  0.000000000E+00 -4.933229825E-09  4.585519433E-01  1.366623305E-02 
        21  3.824101500E-16  4.305555522E-01  1.539770267E-08 -0.000000000E+00  1.539770267E-08  0.000000000E+00  0.000000000E+00  0.000000000E+00 -2.883083994E-09  4.307745099E-01  1.366633922E-02 
        22  3.577385419E-16  4.027777910E-01  1.355114776E-08 -0.000000000E+00  1.355114776E-08  0.000000000E+00  0.000000000E+00  0.000000000E+00 -1.158512175E-09  4.029974341E-01  1.366677973E-02 
        23  3.330669074E-16  3.750000000E-01  1.176089537E-08 -0.000000000E+00  1.176089537E-08  0.000000000E+00  0.000000000E+00  0.000000000E+00  2.498447838E-10  3.752199113E-01  1.366697345E-02 
        24  3.083952729E-16  3.472222090E-01  1.003818362E-08 -0.000000000E+00  1.003818362E-08  0.000000000E+00  0.000000000E+00  0.000000000E+00  1.349969136E-09  3.474422991E-01  1.366702747E-02 
        25  2.837236648E-16  3.194444478E-01  8.392574635E-09 -0.000000000E+00  8.392574635E-09  0.000000000E+00  0.000000000E+00  0.000000000E+00  2.158515366E-09  3.196648657E-01  1.366724726E-02 
        26  2.590520567E-16  2.916666865E-01  6.860106261E-09 -0.000000000E+00  6.860106261E-09  0.000000000E+00  0.000000000E+00  0.000000000E+00  2.694755974E-09  2.918872237E-01  1.366734412E-02 
        27  2.343804222E-16  2.638888955E-01  5.404276582E-09 -0.000000000E+00  5.404276582E-09  0.000000000E+00  0.000000000E+00  0.000000000E+00  2.995455439E-09  2.641095221E-01  1.366737112E-02 
        28  2.097087877E-16  2.361111045E-01  4.098630324E-09 -0.000000000E+00  4.098630324E-09  0.000000000E+00  0.000000000E+00  0.000000000E+00  3.048254316E-09  2.362993211E-01  1.367031969E-02 
        29  1.850371796E-16  2.083333433E-01  2.906651808E-09 -0.000000000E+00  2.906651808E-09  0.000000000E+00  0.000000000E+00  0.000000000E+00  2.858999704E-09  2.084827274E-01  1.364990510E-02 
        30  1.603655451E-16  1.805555522E-01  1.924939763E-09 -0.000000000E+00  1.924939763E-09  0.000000000E+00  0.000000000E+00  0.000000000E+00  2.525544218E-09  1.806723326E-01  1.365275774E-02 
        31  1.356939370E-16  1.527777910E-01  1.098053426E-09 -0.000000000E+00  1.098053426E-09  0.000000000E+00  0.000000000E+00  0.000000000E+00  2.071326444E-09  1.528561264E-01  1.362435985E-02 
        32  1.110223025E-16  1.250000000E-01  4.776112283E-10 -0.000000000E+00  4.776112283E-10  0.000000000E+00  0.000000000E+00  0.000000000E+00  1.540920280E-09  1.250726730E-01  1.361466106E-02 
        33  8.635068116E-17  9.722222388E-02  6.448043488E-11 -0.000000000E+00  6.448043488E-11  0.000000000E+00  0.000000000E+00  0.000000000E+00  1.018083950E-09  9.729524702E-02  1.360667776E-02 
        34  6.167905986E-17  6.944444776E-02 -1.548635803E-10 -0.000000000E+00  1.548635803E-10  0.000000000E+00  0.000000000E+00  0.000000000E+00  5.411155968E-10  6.949968636E-02  1.358862128E-02 
        35  3.700743526E-17  4.166666791E-02 -1.669961947E-10 -0.000000000E+00  1.669961947E-10  0.000000000E+00  0.000000000E+00  0.000000000E+00  1.612170952E-10  4.170033708E-02  1.356932335E-02 
        36  1.233581148E-17  1.388888899E-02 -1.929866163E-11 -0.000000000E+00  1.929866163E-11  0.000000000E+00  0.000000000E+00  0.000000000E+00  0.000000000E+00  1.391045470E-02  1.356096473E-02 
        37  1.354166679E-02  0.000000000E+00 -0.000000000E+00  1.449653418E-11  1.449653418E-11  0.000000000E+00  0.000000000E+00  0.000000000E+00  0.000000000E+00  1.391045470E-02  1.356096473E-02 
        38  4.062499851E-02  0.000000000E+00 -0.000000000E+00  1.643720715E-10  1.643720715E-10  0.000000000E+00  0.000000000E+00  0.000000000E+00 -1.456455373E-10  1.392256096E-02  4.065265507E-02 
        39  6.770832837E-02  0.000000000E+00 -0.000000000E+00  1.597242477E-10  1.597242477E-10  0.000000000E+00  0.000000000E+00  0.000000000E+00 -5.055625363E-10  1.394412667E-02  6.775528193E-02 
        40  9.479166567E-02  0.000000000E+00 -0.000000000E+00 -2.676029884E-11  2.676029884E-11  0.000000000E+00  0.000000000E+00  0.000000000E+00 -9.520713107E-10  1.394547615E-02  9.485922754E-02 
        41  1.218750030E-01  0.000000000E+00  3.202566392E-17 -3.739520082E-10  3.739520082E-10  0.000000000E+00  0.000000000E+00  0.000000000E+00 -1.457806653E-09  1.392253302E-02  1.219656542E-01 
        42  1.489583254E-01  0.000000000E+00 -0.000000000E+00 -8.864202150E-10  8.864202150E-10  0.000000000E+00  0.000000000E+00  0.000000000E+00 -1.979890474E-09  1.391177531E-02  1.490612477E-01 
        43  1.760416627E-01  0.000000000E+00 -0.000000000E+00 -1.541574646E-09  1.541574646E-09  0.000000000E+00  0.000000000E+00  0.000000000E+00 -2.461113535E-09  1.386129297E-02  1.761586666E-01 
        44  2.031250000E-01  0.000000000E+00  6.405132783E-17 -2.311269842E-09  2.311269842E-09  0.000000000E+00  0.000000000E+00  0.000000000E+00 -2.869595006E-09  1.383354329E-02  2.032510042E-01 
        45  2.302083373E-01  0.000000000E+00 -0.000000000E+00 -3.173319163E-09  3.173319163E-09  0.000000000E+00  0.000000000E+00  0.000000000E+00 -3.187525133E-09  1.380600408E-02  2.303252965E-01 
        46  2.572916746E-01  0.000000000E+00 -0.000000000E+00 -4.090093153E-09  4.090093153E-09  0.000000000E+00  0.000000000E+00  0.000000000E+00 -3.408584970E-09  1.376448013E-02  2.574131489E-01 
        47  2.843750119E-01  0.000000000E+00 -0.000000000E+00 -5.094903610E-09  5.094903610E-09  0.000000000E+00  0.000000000E+00  0.000000000E+00 -3.531272608E-09  1.375060994E-02  2.845010161E-01 
        48  3.114583492E-01  0.000000000E+00 -0.000000000E+00 -6.128342278E-09  6.128342278E-09  0.000000000E+00  0.000000000E+00  0.000000000E+00 -3.502236057E-09  1.373683568E-02  3.115797937E-01 
        49  3.385416567E-01  0.000000000E+00 -0.000000000E+00 -7.199332686E-09  7.199332686E-09  0.000000000E+00  0.000000000E+00  0.000000000E+00 -3.328137765E-09  1.371607743E-02  3.386653960E-01 
        50  3.656249940E-01  0.000000000E+00 -0.000000000E+00 -8.258430384E-09  8.258430384E-09  0.000000000E+00  0.000000000E+00  0.000000000E+00 -3.042778474E-09  1.370914374E-02  3.657510281E-01 
        51  3.927083313E-01  0.000000000E+00 -0.000000000E+00 -9.344643281E-09  9.344643281E-09  0.000000000E+00  0.000000000E+00  0.000000000E+00 -2.626213691E-09  1.370225474E-02  3.928320706E-01 
        52  4.197916687E-01  0.000000000E+00 -0.000000000E+00 -1.042988185E-08  1.042988096E-08  0.000000000E+00  0.000000000E+00  0.000000000E+00 -2.071639083E-09  1.369187701E-02  4.199165404E-01 
        53  4.468750060E-01  0.000000000E+00 -0.000000000E+00 -1.150513729E-08  1.150513729E-08  0.000000000E+00  0.000000000E+00  0.000000000E+00 -1.369388714E-09  1.368840970E-02  4.470010102E-01 
        54  4.739583433E-01  0.000000000E+00 -0.000000000E+00 -1.255935711E-08  1.255935800E-08  0.000000000E+00  0.000000000E+00  0.000000000E+00 -5.151246651E-10  1.368496567E-02  4.740832150E-01 
        55  5.010416508E-01  0.000000000E+00 -0.000000000E+00 -1.358077650E-08  1.358077650E-08  0.000000000E+00  0.000000000E+00  0.000000000E+00  4.958515820E-10  1.367977634E-02  5.011671185E-01 
        56  5.281250477E-01  0.000000000E+00 -0.000000000E+00 -1.455623977E-08  1.455624066E-08  0.000000000E+00  0.000000000E+00  0.000000000E+00  1.667711746E-09  1.367804315E-02  5.282509923E-01 
        57  5.552083254E-01  0.000000000E+00 -0.000000000E+00 -1.547117989E-08  1.547117989E-08  0.000000000E+00  0.000000000E+00  0.000000000E+00  3.002173843E-09  1.367632113E-02  5.553337932E-01 
        58  5.822917223E-01  0.000000000E+00 -0.000000000E+00 -1.630939295E-08  1.630939295E-08  0.000000000E+00  0.000000000E+00  0.000000000E+00  4.499368877E-09  1.367372647E-02  5.824174285E-01 
        59  6.093750000E-01  0.000000000E+00 -0.000000000E+00 -1.705332409E-08  1.705332409E-08  0.000000000E+00  0.000000000E+00  0.000000000E+00  6.155886467E-09  1.367285941E-02  6.095010042E-01 
        60  6.364582777E-01  0.000000000E+00 -0.000000000E+00 -1.768509961E-08  1.768510138E-08  0.000000000E+00  0.000000000E+00  0.000000000E+00  7.963956605E-09  1.367199887E-02  6.365840435E-01 
        61  6.635416746E-01  0.000000000E+00 -0.000000000E+00 -1.818531103E-08  1.818531103E-08  0.000000000E+00  0.000000000E+00  0.000000000E+00  9.912492160E-09  1.367070153E-02  6.636675596E-01 
        62  6.906249523E-01  0.000000000E+00 -0.000000000E+00 -1.853706344E-08  1.853706344E-08  0.000000000E+00  0.000000000E+00  0.000000000E+00  1.198279520E-08  1.367026847E-02  6.907510161E-01 
        63  7.177083492E-01  0.000000000E+00 -0.000000000E+00 -1.872335531E-08  1.872335531E-08  0.000000000E+00  0.000000000E+00  0.000000000E+00  1.415609496E-08  1.366983727E-02  7.178342342E-01 
        64  7.447916269E-01  0.000000000E+00 -0.000000000E+00 -1.871956457E-08  1.871956457E-08  0.000000000E+00  0.000000000E+00  0.000000000E+00  1.640146152E-08  1.366918907E-02  7.449176311E-01 
        65  7.718750238E-01  0.000000000E+00 -0.000000000E+00 -1.852360931E-08  1.852360931E-08  0.000000000E+00  0.000000000E+00  0.000000000E+00  1.868603938E-08  1.366897207E-02  7.720010281E-01 
        66  7.989583015E-01  0.000000000E+00 -0.000000000E+00 -1.812252748E-08  1.812252570E-08  0.000000000E+00  0.000000000E+00  0.000000000E+00  2.097041474E-08  1.366875693E-02  7.990843058E-01 
        67  8.260416985E-01  0.000000000E+00 -0.000000000E+00 -1.751138967E-08  1.751138967E-08  0.000000000E+00  0.000000000E+00  0.000000000E+00  2.321070802E-08  1.366843283E-02  8.261676431E-01 
        68  8.531249762E-01  0.000000000E+00 -6.405132783E-17 -1.669312510E-08  1.669312510E-08  0.000000000E+00  0.000000000E+00  0.000000000E+00  2.536266130E-08  1.366832480E-02  8.532510400E-01 
        69  8.802083731E-01  0.000000000E+00 -0.000000000E+00 -1.567578423E-08  1.567578423E-08  0.000000000E+00  0.000000000E+00  0.000000000E+00  2.737917981E-08  1.366821676E-02  8.803343177E-01 
        70  9.072916508E-01  0.000000000E+00 -0.000000000E+00 -1.447533027E-08  1.447533027E-08  0.000000000E+00  0.000000000E+00  0.000000000E+00  2.921439268E-08  1.366805471E-02  9.074176550E-01 
        71  9.343750477E-01  0.000000000E+00 -0.000000000E+00 -1.311523867E-08  1.311523867E-08  0.000000000E+00  0.000000000E+00  0.000000000E+00  3.082541156E-08  1.366800070E-02  9.345009923E-01 
        72  9.614583254E-01  0.000000000E+00 -0.000000000E+00 -1.162666674E-08  1.162666674E-08  0.000000000E+00  0.000000000E+00  0.000000000E+00  3.217476419E-08  1.366794668E-02  9.615843296E-01 
        73  9.885416627E-01  0.000000000E+00 -0.000000000E+00 -1.004686911E-08  1.004686911E-08  0.000000000E+00  0.000000000E+00  0.000000000E+00  3.323301456E-08  1.366786566E-02  9.886676669E-01 
        74  1.015625000E+00  0.000000000E+00 -0.000000000E+00 -8.428029830E-09  8.428029830E-09  0.000000000E+00  0.000000000E+00  0.000000000E+00  3.398287163E-08  1.366783865E-02  1.015751004E+00 
        75  1.042708397E+00  0.000000000E+00 -0.000000000E+00 -6.815460640E-09  6.815460640E-09  0.000000000E+00  0.000000000E+00  0.000000000E+00  3.443498642E-08  1.366781164E-02  1.042834282E+00 
        76  1.069791675E+00  0.000000000E+00 -0.000000000E+00 -5.239357836E-09  5.239357836E-09  0.000000000E+00  0.000000000E+00  0.000000000E+00  3.458021780E-08  1.366777066E-02  1.069917679E+00 
        77  1.096874952E+00  0.000000000E+00 -0.000000000E+00 -3.762637757E-09  3.762637757E-09  0.000000000E+00  0.000000000E+00  0.000000000E+00  3.439717844E-08  1.366775762E-02  1.097000957E+00 
        78  1.123958349E+00  0.000000000E+00 -0.000000000E+00 -2.482565487E-09  2.482565487E-09  0.000000000E+00  0.000000000E+00  0.000000000E+00  3.397762072E-08  1.366774365E-02  1.124084353E+00 
        79  1.151041746E+00  0.000000000E+00 -0.000000000E+00 -1.399762972E-09  1.399762972E-09  0.000000000E+00  0.000000000E+00  0.000000000E+00  3.337600774E-08  1.369257551E-02  1.151159406E+00 
        80  1.178125024E+00  0.000000000E+00 -0.000000000E+00 -5.708649109E-10  5.708649109E-10  0.000000000E+00  0.000000000E+00  0.000000000E+00  3.266130832E-08  1.373006683E-02  1.178213954E+00 
        81  1.205208302E+00  0.000000000E+00 -0.000000000E+00 -3.162800577E-11  3.162800577E-11  0.000000000E+00  0.000000000E+00  0.000000000E+00  3.193376941E-08  1.375491265E-02  1.205288887E+00 
        82  1.232291698E+00  0.000000000E+00 -0.000000000E+00  2.452580916E-10  2.452580916E-10  0.000000000E+00  0.000000000E+00  0.000000000E+00  3.129715864E-08  1.381210610E-02  1.232338428E+00 
        83  1.259374976E+00  0.000000000E+00 -0.000000000E+00  2.437828273E-10  2.437828273E-10  0.000000000E+00  0.000000000E+00  0.000000000E+00  3.077341049E-08  1.384064648E-02  1.259400964E+00 
        84  1.286458254E+00  0.000000000E+00 -0.000000000E+00  2.018996081E-11  2.018996081E-11  0.000000000E+00  0.000000000E+00  0.000000000E+00  3.056550568E-08  1.386034861E-02  1.286479115E+00 
        85  1.299999952E+00  1.388888899E-02  2.725209468E-11 -0.000000000E+00  2.725209468E-11  0.000000000E+00  0.000000000E+00  0.000000000E+00  3.056550568E-08  1.386034861E-02  1.286479115E+00 
        86  1.299999952E+00  4.166666791E-02  2.495532669E-10 -0.000000000E+00  2.495532669E-10  0.000000000E+00  0.000000000E+00  0.000000000E+00  3.034158169E-08  4.161842540E-02  1.286484241E+00 
        87  1.299999952E+00  6.944444776E-02  2.564453927E-10 -0.000000000E+00  2.564453927E-10  0.000000000E+00  0.000000000E+00  0.000000000E+00  2.978618951E-08  6.936768442E-02  1.286505103E+00 
        88  1.299999952E+00  9.722222388E-02 -5.418131221E-12 -0.000000000E+00  5.418131221E-12  0.000000000E+00  0.000000000E+00  0.000000000E+00  2.909493801E-08  9.709909558E-02  1.286507249E+00 
        89  1.299999952E+00  1.250000000E-01 -5.083773402E-10  3.122502257E-17  5.083773402E-10  0.000000000E+00  0.000000000E+00  0.000000000E+00  2.827854217E-08  1.248411611E-01  1.286484241E+00 
        90  1.299999952E+00  1.527777910E-01 -1.263805061E-09 -0.000000000E+00  1.263805061E-09  0.000000000E+00  0.000000000E+00  0.000000000E+00  2.741725069E-08  1.525923312E-01  1.286481380E+00 
        91  1.299999952E+00  1.805555522E-01 -2.251914877E-09 -0.000000000E+00  2.251914877E-09  0.000000000E+00  0.000000000E+00  0.000000000E+00  2.656773290E-08  1.803397387E-01  1.286442518E+00 
        92  1.299999952E+00  2.083333433E-01 -3.453047626E-09 -0.000000000E+00  3.453047626E-09  0.000000000E+00  0.000000000E+00  0.000000000E+00  2.577575842E-08  2.081121355E-01  1.286426783E+00 
        93  1.299999952E+00  2.361111045E-01 -4.850934765E-09 -0.000000000E+00  4.850934765E-09  0.000000000E+00  0.000000000E+00  0.000000000E+00  2.506097552E-08  2.358952761E-01  1.286410928E+00 
        94  1.299999952E+00  2.638888955E-01 -6.447285372E-09  1.249000903E-16  6.447285372E-09  0.000000000E+00  0.000000000E+00  0.000000000E+00  2.444437719E-08  2.636703551E-01  1.286387324E+00 
        95  1.299999952E+00  2.916666865E-01 -8.245445215E-09 -0.000000000E+00  8.245445215E-09  0.000000000E+00  0.000000000E+00  0.000000000E+00  2.393623255E-08  2.914454639E-01  1.286379576E+00 
        96  1.299999952E+00  3.194444478E-01 -1.022822982E-08 -0.000000000E+00  1.022823071E-08  0.000000000E+00  0.000000000E+00  0.000000000E+00  2.354333972E-08  3.192259073E-01  1.286371589E+00 
        97  1.299999952E+00  3.472222090E-01 -1.250761450E-08 -0.000000000E+00  1.250761450E-08  0.000000000E+00  0.000000000E+00  0.000000000E+00  2.326132531E-08  3.470023572E-01  1.286359787E+00 
        98  1.299999952E+00  3.750000000E-01 -1.505403091E-08 -0.000000000E+00  1.505403091E-08  0.000000000E+00  0.000000000E+00  0.000000000E+00  2.322452453E-08  3.747788072E-01  1.286355972E+00 
        99  1.299999952E+00  4.027777910E-01 -1.791121385E-08 -0.000000000E+00  1.791121385E-08  0.000000000E+00  0.000000000E+00  0.000000000E+00  2.351023731E-08  4.025579095E-01  1.286351919E+00 
