cellnumber     x-coordinate     y-coordinate velocity-magnitude       y-velocity       x-velocity         pressure     y-coordinate     x-coordinate 
         1  1.389565039E-02  1.000000000E+00  2.919456847E-06  2.903045015E-06 -3.091246583E-07  5.320978325E-09  1.013870597E+00  1.389546599E-02 
         2  4.168695211E-02  1.000000000E+00  8.853757208E-06  8.631455785E-06 -1.971546908E-06  4.859884051E-09  1.013834000E+00  4.168657959E-02 
         3  6.947825104E-02  1.000000000E+00  1.480770698E-05  1.401264581E-05 -4.786850695E-06  4.049256042E-09  1.013797402E+00  6.947769225E-02 
         4  9.726954997E-02  1.000000000E+00  2.067024980E-05  1.872621579E-05 -8.751460882E-06  3.377871982E-09  1.013760924E+00  9.726880491E-02 
         5  1.250588149E-01  1.000000000E+00  2.630700692E-05  2.256282096E-05 -1.352692470E-05  2.787974962E-09  1.013730288E+00  1.250580400E-01 
         6  1.528460681E-01  1.000000000E+00  3.166365786E-05  2.539031993E-05 -1.891874490E-05  2.302393387E-09  1.013705492E+00  1.528456062E-01 
         7  1.806333065E-01  1.000000000E+00  3.668756835E-05  2.714208313E-05 -2.468369894E-05  1.894247426E-09  1.013680696E+00  1.806331873E-01 
         8  2.084205449E-01  9.999999404E-01  4.135962809E-05  2.780300565E-05 -3.062044925E-05  1.558147944E-09  1.013655901E+00  2.084207535E-01 
         9  2.362048030E-01  1.000000000E+00  4.568355871E-05  2.742308970E-05 -3.653712702E-05  1.278508188E-09  1.013642788E+00  2.362052500E-01 
        10  2.639860511E-01  1.000000000E+00  4.964939944E-05  2.605402551E-05 -4.226405872E-05  1.045172948E-09  1.013641477E+00  2.639864087E-01 
        11  2.917673290E-01  1.000000000E+00  5.324837184E-05  2.377945020E-05 -4.764375262E-05  8.489923209E-10  1.013640285E+00  2.917675376E-01 
        12  3.195486069E-01  1.000000000E+00  5.646955833E-05  2.070420851E-05 -5.253709969E-05  6.799103502E-10  1.013639092E+00  3.195486963E-01 
        13  3.473210931E-01  9.999999404E-01  5.929904364E-05  1.695364881E-05 -5.682385381E-05  5.307306261E-10  1.013656378E+00  3.473210037E-01 
        14  3.750847876E-01  1.000000000E+00  6.171371933E-05  1.266110667E-05 -6.040098742E-05  3.925488545E-10  1.013692260E+00  3.750845790E-01 
        15  4.028484821E-01  1.000000000E+00  6.366764865E-05  7.967844795E-06 -6.316709914E-05  2.609538419E-10  1.013728023E+00  4.028481245E-01 
        16  4.306122065E-01  1.000000000E+00  6.513607514E-05  3.029675554E-06 -6.506557838E-05  1.087570173E-10  1.013763905E+00  4.306116998E-01 
        17  4.583686590E-01  1.000000000E+00  6.604187365E-05 -1.993620572E-06 -6.601177301E-05 -3.544384231E-11  1.013808846E+00  4.583683014E-01 
        18  4.829562306E-01  1.000000000E+00  6.638656487E-05 -6.938787465E-06 -6.602294889E-05 -1.870170824E-10  1.013862610E+00  4.861177504E-01 
        19  4.968308806E-01  1.000000000E+00  5.664249329E-05 -6.393328022E-06 -5.628052531E-05 -6.732298052E-11  9.861067533E-01  4.861189127E-01 
        20  5.138671994E-01  1.000000000E+00  5.622213939E-05 -1.018574585E-05 -5.529176633E-05 -2.863345394E-10  9.861602187E-01  5.138686299E-01 
        21  5.416164398E-01  1.000000000E+00  5.519165643E-05 -1.360128408E-05 -5.348947525E-05 -5.316441176E-10  9.862136245E-01  5.416183472E-01 
        22  5.693724155E-01  1.000000000E+00  5.352188600E-05 -1.651043567E-05 -5.091166895E-05 -8.138255070E-10  9.862567186E-01  5.693746209E-01 
        23  5.971350670E-01  1.000000000E+00  5.121008871E-05 -1.879908268E-05 -4.763473044E-05 -1.137890782E-09  9.862894416E-01  5.971373320E-01 
        24  6.248977780E-01  1.000000000E+00  4.827217708E-05 -2.037779450E-05 -4.376012294E-05 -1.506258007E-09  9.863221645E-01  6.249001026E-01 
        25  6.526604295E-01  1.000000000E+00  4.473578520E-05 -2.117010081E-05 -3.940960960E-05 -1.922457527E-09  9.863548875E-01  6.526628733E-01 
        26  6.804367304E-01  1.000000000E+00  4.066939800E-05 -2.117848453E-05 -3.471990203E-05 -2.383273801E-09  9.863669276E-01  6.804382801E-01 
        27  7.082266808E-01  1.000000000E+00  3.614346497E-05 -2.039353603E-05 -2.984047205E-05 -2.884834593E-09  9.863578677E-01  7.082268596E-01 
        28  7.360165715E-01  1.000000000E+00  3.127567834E-05 -1.887307189E-05 -2.493943066E-05 -3.426850581E-09  9.863487482E-01  7.360154390E-01 
        29  7.638064623E-01  1.000000000E+00  2.620037776E-05 -1.671259997E-05 -2.017792940E-05 -3.994640174E-09  9.863396883E-01  7.638040185E-01 
        30  7.915935516E-01  9.999999404E-01  2.106846296E-05 -1.404599425E-05 -1.570319000E-05 -4.582022317E-09  9.863242507E-01  7.915916443E-01 
        31  8.193776608E-01  9.999999404E-01  1.605863326E-05 -1.104883904E-05 -1.165344929E-05 -5.175321061E-09  9.863035679E-01  8.193773627E-01 
        32  8.471618295E-01  1.000000000E+00  1.136477840E-05 -7.930645552E-06 -8.140212231E-06 -5.760927291E-09  9.862828255E-01  8.471630812E-01 
        33  8.749459982E-01  1.000000000E+00  7.195914804E-06 -4.927562713E-06 -5.244074600E-06 -6.321998924E-09  9.862621427E-01  8.749487996E-01 
        34  9.027333260E-01  1.000000000E+00  3.784858109E-06 -2.295506874E-06 -3.009285365E-06 -6.844014688E-09  9.862345457E-01  9.027361274E-01 
        35  9.305237532E-01  1.000000000E+00  1.469745371E-06 -3.001542268E-07 -1.438769914E-06 -7.307482619E-09  9.861993194E-01  9.305258393E-01 
        36  9.583142996E-01  1.000000000E+00  9.221323012E-07  7.797957551E-07 -4.921854497E-07 -7.687195769E-09  9.861640930E-01  9.583154917E-01 
        37  9.861047268E-01  1.000000000E+00  7.104475799E-07  7.083384617E-07 -5.470274900E-08 -7.939719993E-09  9.861288667E-01  9.861052036E-01 
