cellnumber     x-coordinate     y-coordinate     y-wall-shear     x-wall-shear       wall-shear velocity-magnitude       y-velocity       x-velocity         pressure     y-coordinate     x-coordinate 
         1  9.276414730E-16  9.814814925E-01  3.337260353E-07 -0.000000000E+00  3.337260353E-07  0.000000000E+00  0.000000000E+00  0.000000000E+00 -5.227581141E-07  9.814784527E-01  1.852055639E-02 
         2  8.388351506E-16  9.444444180E-01  1.311133246E-07 -0.000000000E+00  1.311133246E-07  0.000000000E+00  0.000000000E+00  0.000000000E+00 -2.987158894E-07  9.444390535E-01  1.852080785E-02 
         3  8.059396732E-16  9.074074030E-01  1.040904607E-07 -0.000000000E+00  1.040904678E-07  0.000000000E+00  0.000000000E+00  0.000000000E+00 -1.679804456E-07  9.073989987E-01  1.852284558E-02 
         4  7.730441958E-16  8.703703880E-01  7.765213894E-08 -0.000000000E+00  7.765213894E-08  0.000000000E+00  0.000000000E+00  0.000000000E+00 -1.088164794E-07  8.703568578E-01  1.852511801E-02 
         5  7.401487184E-16  8.333333731E-01  6.084123783E-08 -0.000000000E+00  6.084123783E-08  0.000000000E+00  0.000000000E+00  0.000000000E+00 -7.729816787E-08  8.333178759E-01  1.852555573E-02 
         6  7.072531880E-16  7.962962985E-01  4.902442541E-08 -0.000000000E+00  4.902442541E-08  0.000000000E+00  0.000000000E+00  0.000000000E+00 -5.595592967E-08  7.962780595E-01  1.852757856E-02 
         7  6.743576577E-16  7.592592239E-01  4.031869949E-08  3.747002708E-16  4.031869949E-08  0.000000000E+00  0.000000000E+00  0.000000000E+00 -4.172268575E-08  7.592371106E-01  1.852999814E-02 
         8  6.414621802E-16  7.222222090E-01  3.398058723E-08 -0.000000000E+00  3.398058723E-08  0.000000000E+00  0.000000000E+00  0.000000000E+00 -3.148127092E-08  7.221991420E-01  1.853102446E-02 
         9  6.085667028E-16  6.851851940E-01  2.901221485E-08 -0.000000000E+00  2.901221485E-08  0.000000000E+00  0.000000000E+00  0.000000000E+00 -2.380110864E-08  6.851601601E-01  1.853300817E-02 
        10  5.756712254E-16  6.481481791E-01  2.499778340E-08 -3.747002708E-16  2.499778340E-08  0.000000000E+00  0.000000000E+00  0.000000000E+00 -1.779590164E-08  6.481221318E-01  1.853489503E-02 
        11  5.427756950E-16  6.111111045E-01  2.160721735E-08 -0.000000000E+00  2.160721735E-08  0.000000000E+00  0.000000000E+00  0.000000000E+00 -1.301044428E-08  6.110857129E-01  1.853593998E-02 
        12  5.098802176E-16  5.740740895E-01  1.866238897E-08 -0.000000000E+00  1.866238897E-08  0.000000000E+00  0.000000000E+00  0.000000000E+00 -9.150238789E-09  5.740485787E-01  1.853680238E-02 
        13  4.769846873E-16  5.370370150E-01  1.604231592E-08 -0.000000000E+00  1.604231592E-08  0.000000000E+00  0.000000000E+00  0.000000000E+00 -6.037158773E-09  5.370125175E-01  1.853825711E-02 
        14  4.440892099E-16  5.000000000E-01  1.367640579E-08 -0.000000000E+00  1.367640579E-08  0.000000000E+00  0.000000000E+00  0.000000000E+00 -3.547292016E-09  4.999762475E-01  1.853904314E-02 
        15  4.111937324E-16  4.629629850E-01  1.152028073E-08 -0.000000000E+00  1.152028073E-08  0.000000000E+00  0.000000000E+00  0.000000000E+00 -1.594082755E-09  4.629395604E-01  1.853945479E-02 
        16  3.782982021E-16  4.259259105E-01  9.549584234E-09 -0.000000000E+00  9.549584234E-09  0.000000000E+00  0.000000000E+00  0.000000000E+00 -1.104376521E-10  4.259051085E-01  1.853922941E-02 
        17  3.454027247E-16  3.888888955E-01  7.750820430E-09 -0.000000000E+00  7.750820430E-09  0.000000000E+00  0.000000000E+00  0.000000000E+00  9.588168037E-10  3.888696134E-01  1.853934117E-02 
        18  3.125072208E-16  3.518518507E-01  6.125547625E-09 -0.000000000E+00  6.125547625E-09  0.000000000E+00  0.000000000E+00  0.000000000E+00  1.663753357E-09  3.518344164E-01  1.853832975E-02 
        19  2.796117169E-16  3.148148060E-01  4.674709952E-09 -0.000000000E+00  4.674709952E-09  0.000000000E+00  0.000000000E+00  0.000000000E+00  2.064410198E-09  3.148007393E-01  1.853669435E-02 
        20  2.467162395E-16  2.777777910E-01  3.383322289E-09 -0.000000000E+00  3.383322511E-09  0.000000000E+00  0.000000000E+00  0.000000000E+00  2.194255000E-09  2.777646780E-01  1.853587665E-02 
        21  2.138207356E-16  2.407407463E-01  2.275324595E-09 -0.000000000E+00  2.275324595E-09  0.000000000E+00  0.000000000E+00  0.000000000E+00  2.067661153E-09  2.407294512E-01  1.853412762E-02 
        22  1.809252317E-16  2.037037015E-01  1.385965120E-09 -0.000000000E+00  1.385965120E-09  0.000000000E+00  0.000000000E+00  0.000000000E+00  1.775365632E-09  2.036953866E-01  1.853119209E-02 
        23  1.480297278E-16  1.666666567E-01  6.913190020E-10 -0.000000000E+00  6.913190020E-10  0.000000000E+00  0.000000000E+00  0.000000000E+00  1.376514680E-09  1.666592658E-01  1.853004657E-02 
        24  1.151342371E-16  1.296296269E-01  2.124648929E-10 -0.000000000E+00  2.124648929E-10  0.000000000E+00  0.000000000E+00  0.000000000E+00  9.276320267E-10  1.296242326E-01  1.852793060E-02 
        25  8.223874649E-17  9.259259701E-02 -5.707532363E-11 -0.000000000E+00  5.707532363E-11  0.000000000E+00  0.000000000E+00  0.000000000E+00  5.123418911E-10  9.258991480E-02  1.852434501E-02 
        26  4.934324591E-17  5.555555597E-02 -1.337905758E-10 -0.000000000E+00  1.337905758E-10  0.000000000E+00  0.000000000E+00  0.000000000E+00  1.707378822E-10  5.555330962E-02  1.852265187E-02 
        27  1.644774864E-17  1.851851866E-02 -1.849089978E-11 -0.000000000E+00  1.849089978E-11  0.000000000E+00  0.000000000E+00  0.000000000E+00  0.000000000E+00  1.851808466E-02  1.852021180E-02 
        28  1.851851866E-02  0.000000000E+00 -0.000000000E+00  1.846778286E-11  1.846778286E-11  0.000000000E+00  0.000000000E+00  0.000000000E+00  0.000000000E+00  1.851808466E-02  1.852021180E-02 
        29  5.555555597E-02  0.000000000E+00  7.318364664E-19  1.347061490E-10  1.347061490E-10  0.000000000E+00  0.000000000E+00  0.000000000E+00 -1.669454019E-10  1.851627417E-02  5.555969104E-02 
        30  9.259259701E-02  0.000000000E+00 -0.000000000E+00  6.247115325E-11  6.247115325E-11  0.000000000E+00  0.000000000E+00  0.000000000E+00 -5.051065122E-10  1.851584017E-02  9.259841591E-02 
        31  1.296296269E-01  0.000000000E+00 -0.000000000E+00 -1.835681745E-10  1.835681745E-10  0.000000000E+00  0.000000000E+00  0.000000000E+00 -9.139086155E-10  1.851375774E-02  1.296399385E-01 
        32  1.666666567E-01  0.000000000E+00 -0.000000000E+00 -5.921201862E-10  5.921201862E-10  0.000000000E+00  0.000000000E+00  0.000000000E+00 -1.354611867E-09  1.851189137E-02  1.666797101E-01 
        33  2.037037015E-01  0.000000000E+00 -0.000000000E+00 -1.143268480E-09  1.143268480E-09  0.000000000E+00  0.000000000E+00  0.000000000E+00 -1.766656710E-09  1.851162128E-02  2.037187964E-01 
        34  2.407407463E-01  0.000000000E+00 -0.000000000E+00 -1.800661509E-09  1.800661509E-09  0.000000000E+00  0.000000000E+00  0.000000000E+00 -2.108996755E-09  1.850987040E-02  2.407606393E-01 
        35  2.777777910E-01  0.000000000E+00 -0.000000000E+00 -2.526491905E-09  2.526491905E-09  0.000000000E+00  0.000000000E+00  0.000000000E+00 -2.363574003E-09  1.850846782E-02  2.778001726E-01 
        36  3.148148060E-01  0.000000000E+00 -0.000000000E+00 -3.296420470E-09  3.296420470E-09  0.000000000E+00  0.000000000E+00  0.000000000E+00 -2.529374044E-09  1.850858331E-02  3.148392737E-01 
        37  3.518518507E-01  0.000000000E+00 -0.000000000E+00 -4.108633878E-09  4.108633878E-09  0.000000000E+00  0.000000000E+00  0.000000000E+00 -2.601181048E-09  1.850764267E-02  3.518803120E-01 
        38  3.888888955E-01  0.000000000E+00 -4.683753385E-17 -4.930329478E-09  4.930329478E-09  0.000000000E+00  0.000000000E+00  0.000000000E+00 -2.549096045E-09  1.850708015E-02  3.889189065E-01 
        39  4.259259105E-01  0.000000000E+00 -0.000000000E+00 -5.749261955E-09  5.749261955E-09  0.000000000E+00  0.000000000E+00  0.000000000E+00 -2.399563659E-09  1.850754023E-02  4.259574413E-01 
        40  4.629629850E-01  0.000000000E+00 -0.000000000E+00 -6.556936771E-09  6.556937215E-09  0.000000000E+00  0.000000000E+00  0.000000000E+00 -2.171422375E-09  1.850741170E-02  4.629966021E-01 
        41  5.000000000E-01  0.000000000E+00 -4.683753385E-17 -7.367507937E-09  7.367507937E-09  0.000000000E+00  0.000000000E+00  0.000000000E+00 -1.856590770E-09  1.850752532E-02  5.000340343E-01 
        42  5.370370150E-01  0.000000000E+00  4.683753385E-17 -8.171595844E-09  8.171595844E-09  0.000000000E+00  0.000000000E+00  0.000000000E+00 -1.456875731E-09  1.850795560E-02  5.370716453E-01 
        43  5.740740895E-01  0.000000000E+00 -0.000000000E+00 -8.970752141E-09  8.970752141E-09  0.000000000E+00  0.000000000E+00  0.000000000E+00 -9.707304960E-10  1.850749925E-02  5.741077065E-01 
        44  6.111111045E-01  0.000000000E+00 -0.000000000E+00 -9.766234932E-09  9.766234932E-09  0.000000000E+00  0.000000000E+00  0.000000000E+00 -3.971148965E-10  1.850782149E-02  6.111434102E-01 
        45  6.481481791E-01  0.000000000E+00 -0.000000000E+00 -1.056059773E-08  1.056059773E-08  0.000000000E+00  0.000000000E+00  0.000000000E+00  2.664159726E-10  1.850724965E-02  6.481790543E-01 
        46  6.851851940E-01  0.000000000E+00 -0.000000000E+00 -1.135624306E-08  1.135624395E-08  0.000000000E+00  0.000000000E+00  0.000000000E+00  1.023917284E-09  1.850797236E-02  6.852147579E-01 
        47  7.222222090E-01  0.000000000E+00 -0.000000000E+00 -1.215563028E-08  1.215563028E-08  0.000000000E+00  0.000000000E+00  0.000000000E+00  1.880899880E-09  1.850851439E-02  7.222514153E-01 
        48  7.592592239E-01  0.000000000E+00 -4.683753385E-17 -1.296075514E-08  1.296075514E-08  0.000000000E+00  0.000000000E+00  0.000000000E+00  2.844004365E-09  1.850891486E-02  7.592883706E-01 
        49  7.962962985E-01  0.000000000E+00 -0.000000000E+00 -1.377316927E-08  1.377316927E-08  0.000000000E+00  0.000000000E+00  0.000000000E+00  3.921164282E-09  1.851005480E-02  7.963246703E-01 
        50  8.333333731E-01  0.000000000E+00 -0.000000000E+00 -1.459365073E-08  1.459365073E-08  0.000000000E+00  0.000000000E+00  0.000000000E+00  5.121306934E-09  1.851111464E-02  8.333607316E-01 
        51  8.703703880E-01  0.000000000E+00 -4.683753385E-17 -1.542198191E-08  1.542198369E-08  0.000000000E+00  0.000000000E+00  0.000000000E+00  6.454722978E-09  1.851171255E-02  8.703973293E-01 
        52  9.074074030E-01  0.000000000E+00 -4.683753385E-17 -1.625661206E-08  1.625661206E-08  0.000000000E+00  0.000000000E+00  0.000000000E+00  7.932252188E-09  1.851323433E-02  9.074329138E-01 
        53  9.444444180E-01  0.000000000E+00 -0.000000000E+00 -1.709445918E-08  1.709445918E-08  0.000000000E+00  0.000000000E+00  0.000000000E+00  9.565696679E-09  1.851418242E-02  9.444689751E-01 
        54  9.814814925E-01  0.000000000E+00 -0.000000000E+00 -1.793049798E-08  1.793049798E-08  0.000000000E+00  0.000000000E+00  0.000000000E+00  1.136735239E-08  1.851464435E-02  9.815055132E-01 
        55  1.018518448E+00  0.000000000E+00 -4.683753385E-17 -1.875712208E-08  1.875712208E-08  0.000000000E+00  0.000000000E+00  0.000000000E+00  1.334927635E-08  1.851686276E-02  1.018541694E+00 
        56  1.055555582E+00  0.000000000E+00 -0.000000000E+00 -1.956453843E-08  1.956453843E-08  0.000000000E+00  0.000000000E+00  0.000000000E+00  1.552282924E-08  1.851840690E-02  1.055577874E+00 
        57  1.092592597E+00  0.000000000E+00 -0.000000000E+00 -2.033970325E-08  2.033970325E-08  0.000000000E+00  0.000000000E+00  0.000000000E+00  1.789836723E-08  1.851967722E-02  1.092614889E+00 
        58  1.129629612E+00  0.000000000E+00 -0.000000000E+00 -2.106631669E-08  2.106631491E-08  0.000000000E+00  0.000000000E+00  0.000000000E+00  2.048346381E-08  1.852196641E-02  1.129650593E+00 
        59  1.166666746E+00  0.000000000E+00 -0.000000000E+00 -2.172543745E-08  2.172543745E-08  0.000000000E+00  0.000000000E+00  0.000000000E+00  2.328213000E-08  1.852328889E-02  1.166686416E+00 
        60  1.203703642E+00  0.000000000E+00 -0.000000000E+00 -2.229263707E-08  2.229263707E-08  0.000000000E+00  0.000000000E+00  0.000000000E+00  2.629500528E-08  1.852403581E-02  1.203722954E+00 
        61  1.240740776E+00  0.000000000E+00 -0.000000000E+00 -2.274468081E-08  2.274468081E-08  0.000000000E+00  0.000000000E+00  0.000000000E+00  2.951233746E-08  1.852625050E-02  1.240758300E+00 
        62  1.277777672E+00  0.000000000E+00 -0.000000000E+00 -2.305014135E-08  2.305014135E-08  0.000000000E+00  0.000000000E+00  0.000000000E+00  3.292501560E-08  1.852769777E-02  1.277794123E+00 
        63  1.314814806E+00  0.000000000E+00 -0.000000000E+00 -2.317887393E-08  2.317887571E-08  0.000000000E+00  0.000000000E+00  0.000000000E+00  3.650965397E-08  1.852858812E-02  1.314830661E+00 
        64  1.351851940E+00  0.000000000E+00 -0.000000000E+00 -2.308831526E-08  2.308831526E-08  0.000000000E+00  0.000000000E+00  0.000000000E+00  4.021767097E-08  1.853092015E-02  1.351866245E+00 
        65  1.388888836E+00  0.000000000E+00 -0.000000000E+00 -2.277027100E-08  2.277027100E-08  0.000000000E+00  0.000000000E+00  0.000000000E+00  4.401050901E-08  1.853219979E-02  1.388902426E+00 
        66  1.425925970E+00  0.000000000E+00 -0.000000000E+00 -2.218265394E-08  2.218265394E-08  0.000000000E+00  0.000000000E+00  0.000000000E+00  4.782421925E-08  1.853308268E-02  1.425939202E+00 
        67  1.462962866E+00  0.000000000E+00 -0.000000000E+00 -2.131011456E-08  2.131011456E-08  0.000000000E+00  0.000000000E+00  0.000000000E+00  5.158590355E-08  1.853484847E-02  1.462974668E+00 
        68  1.500000000E+00  0.000000000E+00 -0.000000000E+00 -2.014176737E-08  2.014176737E-08  0.000000000E+00  0.000000000E+00  0.000000000E+00  5.521282986E-08  1.853591762E-02  1.500010610E+00 
        69  1.537037134E+00  0.000000000E+00  9.367506770E-17 -1.867971200E-08  1.867971200E-08  0.000000000E+00  0.000000000E+00  0.000000000E+00  5.861465979E-08  1.853640378E-02  1.537047029E+00 
        70  1.574074030E+00  0.000000000E+00 -0.000000000E+00 -1.694184704E-08  1.694184704E-08  0.000000000E+00  0.000000000E+00  0.000000000E+00  6.169835842E-08  1.853682287E-02  1.574081659E+00 
        71  1.611111164E+00  0.000000000E+00 -0.000000000E+00 -1.496359658E-08  1.496359658E-08  0.000000000E+00  0.000000000E+00  0.000000000E+00  6.437630162E-08  1.853695139E-02  1.611117601E+00 
        72  1.648148060E+00  0.000000000E+00 -0.000000000E+00 -1.280179163E-08  1.280179163E-08  0.000000000E+00  0.000000000E+00  0.000000000E+00  6.656933493E-08  1.853629947E-02  1.648153305E+00 
        73  1.685185194E+00  0.000000000E+00 -0.000000000E+00 -1.052523757E-08  1.052523757E-08  0.000000000E+00  0.000000000E+00  0.000000000E+00  6.822595111E-08  1.853597350E-02  1.685188651E+00 
        74  1.722222328E+00  0.000000000E+00 -0.000000000E+00 -8.274181340E-09  8.274181340E-09  0.000000000E+00  0.000000000E+00  0.000000000E+00  6.931905716E-08  1.853587665E-02  1.722225308E+00 
        75  1.759259224E+00  0.000000000E+00 -0.000000000E+00 -5.993614938E-09  5.993614938E-09  0.000000000E+00  0.000000000E+00  0.000000000E+00  6.989499468E-08  1.853542402E-02  1.759261727E+00 
        76  1.796296358E+00  0.000000000E+00 -0.000000000E+00 -4.029860001E-09  4.029860001E-09  0.000000000E+00  0.000000000E+00  0.000000000E+00  6.989690604E-08  1.853346638E-02  1.796297312E+00 
        77  1.833333254E+00  0.000000000E+00 -0.000000000E+00 -2.247147801E-09  2.247147801E-09  0.000000000E+00  0.000000000E+00  0.000000000E+00  6.941649389E-08  1.853189059E-02  1.833334446E+00 
        78  1.870370388E+00  0.000000000E+00 -0.000000000E+00 -9.746998764E-10  9.746998764E-10  0.000000000E+00  0.000000000E+00  0.000000000E+00  6.868020108E-08  1.853002980E-02  1.870370507E+00 
        79  1.907407403E+00  0.000000000E+00 -0.000000000E+00 -1.476059830E-10  1.476059830E-10  0.000000000E+00  0.000000000E+00  0.000000000E+00  6.785960238E-08  1.852594689E-02  1.907406807E+00 
        80  1.944444418E+00  0.000000000E+00 -0.000000000E+00  2.125238596E-10  2.125238457E-10  0.000000000E+00  0.000000000E+00  0.000000000E+00  6.717285572E-08  1.852348633E-02  1.944444537E+00 
        81  1.981481552E+00  0.000000000E+00 -0.000000000E+00  5.760615596E-11  5.760615596E-11  0.000000000E+00  0.000000000E+00  0.000000000E+00  6.672461694E-08  1.852097921E-02  1.981480718E+00 
        82  2.000000000E+00  1.851851866E-02  4.865196787E-11 -0.000000000E+00  4.865196787E-11  0.000000000E+00  0.000000000E+00  0.000000000E+00  6.672461694E-08  1.852097921E-02  1.981480718E+00 
        83  2.000000000E+00  5.555555597E-02  2.208930955E-10  2.927345866E-18  2.208930955E-10  0.000000000E+00  0.000000000E+00  0.000000000E+00  6.630294536E-08  5.556052178E-02  1.981481671E+00 
        84  2.000000000E+00  9.259259701E-02 -1.030218827E-10 -0.000000000E+00  1.030218827E-10  0.000000000E+00  0.000000000E+00  0.000000000E+00  6.556241061E-08  9.260001779E-02  1.981480837E+00 
        85  2.000000000E+00  1.296296269E-01 -8.365657611E-10 -0.000000000E+00  8.365657611E-10  0.000000000E+00  0.000000000E+00  0.000000000E+00  6.468938807E-08  1.296418905E-01  1.981480718E+00 
        86  2.000000000E+00  1.666666567E-01 -1.966940166E-09 -0.000000000E+00  1.966940166E-09  0.000000000E+00  0.000000000E+00  0.000000000E+00  6.376981077E-08  1.666810215E-01  1.981481075E+00 
        87  2.000000000E+00  2.037037015E-01 -3.465587817E-09 -9.367506770E-17  3.465587817E-09  0.000000000E+00  0.000000000E+00  0.000000000E+00  6.297273814E-08  2.037203908E-01  1.981479883E+00 
        88  2.000000000E+00  2.407407463E-01 -5.241338918E-09 -0.000000000E+00  5.241338918E-09  0.000000000E+00  0.000000000E+00  0.000000000E+00  6.235332961E-08  2.407612801E-01  1.981478691E+00 
        89  2.000000000E+00  2.777777910E-01 -7.329965968E-09 -0.000000000E+00  7.329965968E-09  0.000000000E+00  0.000000000E+00  0.000000000E+00  6.193278068E-08  2.777993381E-01  1.981478095E+00 
        90  2.000000000E+00  3.148148060E-01 -9.703883030E-09 -0.000000000E+00  9.703883919E-09  0.000000000E+00  0.000000000E+00  0.000000000E+00  6.180203371E-08  3.148381412E-01  1.981476545E+00 
        91  2.000000000E+00  3.518518507E-01 -1.240215042E-08 -0.000000000E+00  1.240215042E-08  0.000000000E+00  0.000000000E+00  0.000000000E+00  6.207923775E-08  3.518767357E-01  1.981474400E+00 
        92  2.000000000E+00  3.888888955E-01 -1.535395810E-08 -0.000000000E+00  1.535395810E-08  0.000000000E+00  0.000000000E+00  0.000000000E+00  6.273600661E-08  3.889133036E-01  1.981472969E+00 
        93  2.000000000E+00  4.259259105E-01 -1.869032396E-08 -0.000000000E+00  1.869032396E-08  0.000000000E+00  0.000000000E+00  0.000000000E+00  6.387219997E-08  4.259508550E-01  1.981471419E+00 
        94  2.000000000E+00  4.629629850E-01 -2.243573149E-08 -0.000000000E+00  2.243573149E-08  0.000000000E+00  0.000000000E+00  0.000000000E+00  6.563288935E-08  4.629859924E-01  1.981469631E+00 
        95  2.000000000E+00  5.000000000E-01 -2.663263743E-08 -0.000000000E+00  2.663263743E-08  0.000000000E+00  0.000000000E+00  0.000000000E+00  6.819279008E-08  5.000211000E-01  1.981468320E+00 
        96  2.000000000E+00  5.370370150E-01 -3.133840565E-08 -0.000000000E+00  3.133840565E-08  0.000000000E+00  0.000000000E+00  0.000000000E+00  7.177133909E-08  5.370566845E-01  1.981468081E+00 
        97  2.000000000E+00  5.740740895E-01 -3.661886083E-08 -0.000000000E+00  3.661886083E-08  0.000000000E+00  0.000000000E+00  0.000000000E+00  7.664705493E-08  5.740898848E-01  1.981467485E+00 
        98  2.000000000E+00  6.111111045E-01 -4.256089170E-08 -0.000000000E+00  4.256088815E-08  0.000000000E+00  0.000000000E+00  0.000000000E+00  8.318742317E-08  6.111250520E-01  1.981467009E+00 
        99  2.000000000E+00  6.481481791E-01 -4.927571950E-08 -0.000000000E+00  4.927571950E-08  0.000000000E+00  0.000000000E+00  0.000000000E+00  9.188326544E-08  6.481601596E-01  1.981467724E+00 
