cellnumber     x-coordinate     y-coordinate     y-wall-shear     x-wall-shear       wall-shear velocity-magnitude       y-velocity       x-velocity         pressure     y-coordinate     x-coordinate 
         1  9.292861992E-16  9.833333492E-01  1.417164981E-06 -0.000000000E+00  1.417164981E-06  0.000000000E+00  0.000000000E+00  0.000000000E+00 -1.749610078E-06  9.832795858E-01  1.769805700E-02 
         2  8.437694881E-16  9.499999881E-01  4.247724235E-07 -0.000000000E+00  4.247724235E-07  0.000000000E+00  0.000000000E+00  0.000000000E+00 -9.685277291E-07  9.499152899E-01  1.771918871E-02 
         3  8.141635161E-16  9.166666269E-01  3.326739488E-07 -6.661337724E-15  3.326739488E-07  0.000000000E+00  0.000000000E+00  0.000000000E+00 -5.036106359E-07  9.165282249E-01  1.777018607E-02 
         4  7.845575970E-16  8.833333254E-01  2.369783658E-07 -0.000000000E+00  2.369783658E-07  0.000000000E+00  0.000000000E+00  0.000000000E+00 -2.984517948E-07  8.831686974E-01  1.774633490E-02 
         5  7.549516779E-16  8.500000238E-01  1.766166804E-07 -0.000000000E+00  1.766166804E-07  0.000000000E+00  0.000000000E+00  0.000000000E+00 -1.991241732E-07  8.498095274E-01  1.769343764E-02 
         6  7.253457059E-16  8.166666627E-01  1.372229121E-07 -0.000000000E+00  1.372228979E-07  0.000000000E+00  0.000000000E+00  0.000000000E+00 -1.318995544E-07  8.164810538E-01  1.764845476E-02 
         7  6.957397339E-16  7.833333015E-01  1.077062564E-07 -0.000000000E+00  1.077062564E-07  0.000000000E+00  0.000000000E+00  0.000000000E+00 -8.929125528E-08  7.831224799E-01  1.754731685E-02 
         8  6.661338148E-16  7.500000000E-01  8.693261577E-08 -0.000000000E+00  8.693261577E-08  0.000000000E+00  0.000000000E+00  0.000000000E+00 -5.942453996E-08  7.497556210E-01  1.748694666E-02 
         9  6.365278957E-16  7.166666985E-01  7.079888320E-08 -0.000000000E+00  7.079888320E-08  0.000000000E+00  0.000000000E+00  0.000000000E+00 -3.850587760E-08  7.164230347E-01  1.743870601E-02 
        10  6.069219237E-16  6.833333373E-01  5.829906868E-08 -0.000000000E+00  5.829907224E-08  0.000000000E+00  0.000000000E+00  0.000000000E+00 -2.310104641E-08  6.830624938E-01  1.735229418E-02 
        11  5.773159516E-16  6.499999762E-01  4.812269694E-08 -0.000000000E+00  4.812269694E-08  0.000000000E+00  0.000000000E+00  0.000000000E+00 -1.179770504E-08  6.497183442E-01  1.732439920E-02 
        12  5.477100325E-16  6.166666746E-01  3.974439267E-08 -0.000000000E+00  3.974439267E-08  0.000000000E+00  0.000000000E+00  0.000000000E+00 -3.464974085E-09  6.163914204E-01  1.729835756E-02 
        13  5.181041135E-16  5.833333731E-01  3.267371795E-08 -0.000000000E+00  3.267371795E-08  0.000000000E+00  0.000000000E+00  0.000000000E+00  2.603926852E-09  5.830692649E-01  1.724543609E-02 
        14  4.884981414E-16  5.500000119E-01  2.661328047E-08 -0.000000000E+00  2.661328047E-08  0.000000000E+00  0.000000000E+00  0.000000000E+00  6.901373251E-09  5.497449636E-01  1.723090000E-02 
        15  4.588921694E-16  5.166666508E-01  2.136565769E-08 -0.000000000E+00  2.136565769E-08  0.000000000E+00  0.000000000E+00  0.000000000E+00  9.773272858E-09  5.164336562E-01  1.720587164E-02 
        16  4.292862503E-16  4.833333492E-01  1.687991968E-08 -0.000000000E+00  1.687991968E-08  0.000000000E+00  0.000000000E+00  0.000000000E+00  1.150606277E-08  4.831255674E-01  1.719874702E-02 
        17  3.996802783E-16  4.499999881E-01  1.283145590E-08 -2.081668039E-16  1.283145590E-08  0.000000000E+00  0.000000000E+00  0.000000000E+00  1.237357328E-08  4.498177171E-01  1.722063683E-02 
        18  3.700743592E-16  4.166666865E-01  9.486337937E-09 -0.000000000E+00  9.486337937E-09  0.000000000E+00  0.000000000E+00  0.000000000E+00  1.239783298E-08  4.165005982E-01  1.722804829E-02 
        19  3.404683872E-16  3.833333254E-01  6.511200912E-09 -0.000000000E+00  6.511200912E-09  0.000000000E+00  0.000000000E+00  0.000000000E+00  1.174585584E-08  3.831795156E-01  1.726767421E-02 
        20  3.108624681E-16  3.500000238E-01  4.159654843E-09 -0.000000000E+00  4.159654843E-09  0.000000000E+00  0.000000000E+00  0.000000000E+00  1.071424549E-08  3.498425484E-01  1.727966033E-02 
        21  2.812564960E-16  3.166666627E-01  2.223212503E-09 -0.000000000E+00  2.223212503E-09  0.000000000E+00  0.000000000E+00  0.000000000E+00  9.362373099E-09  3.164959848E-01  1.729739457E-02 
        22  2.516505770E-16  2.833333611E-01  7.130590007E-10 -0.000000000E+00  7.130590007E-10  0.000000000E+00  0.000000000E+00  0.000000000E+00  7.889797260E-09  2.831694186E-01  1.733208634E-02 
        23  2.220446049E-16  2.500000000E-01 -3.834344786E-10 -0.000000000E+00  3.834345064E-10  0.000000000E+00  0.000000000E+00  0.000000000E+00  6.233199290E-09  2.498653829E-01  1.736872643E-02 
        24  1.924386594E-16  2.166666687E-01 -1.043515052E-09 -0.000000000E+00  1.043515052E-09  0.000000000E+00  0.000000000E+00  0.000000000E+00  4.666008913E-09  2.165424675E-01  1.739143021E-02 
        25  1.628327138E-16  1.833333373E-01 -1.379236725E-09 -0.000000000E+00  1.379236836E-09  0.000000000E+00  0.000000000E+00  0.000000000E+00  3.255733683E-09  1.832369566E-01  1.743006334E-02 
        26  1.332267682E-16  1.500000060E-01 -1.434026342E-09 -0.000000000E+00  1.434026342E-09  0.000000000E+00  0.000000000E+00  0.000000000E+00  1.962180418E-09  1.499032080E-01  1.743140258E-02 
        27  1.036208227E-16  1.166666746E-01 -1.184082499E-09 -0.000000000E+00  1.184082499E-09  0.000000000E+00  0.000000000E+00  0.000000000E+00  9.963999625E-10  1.165683940E-01  1.743339375E-02 
        28  7.401487051E-17  8.333333582E-02 -7.786395417E-10 -0.000000000E+00  7.786395417E-10  0.000000000E+00  0.000000000E+00  0.000000000E+00  3.720384834E-10  8.324249834E-02  1.747914962E-02 
        29  4.440892496E-17  5.000000447E-02 -3.764160650E-10 -0.000000000E+00  3.764160650E-10  0.000000000E+00  0.000000000E+00  0.000000000E+00  9.401584372E-11  4.995065928E-02  1.754089631E-02 
        30  1.480297443E-17  1.666666754E-02 -4.367381456E-12 -0.000000000E+00  4.367381456E-12  0.000000000E+00  0.000000000E+00  0.000000000E+00  0.000000000E+00  1.662524603E-02  1.758531108E-02 
        31  1.764705963E-02  0.000000000E+00 -0.000000000E+00  2.340861185E-11  2.340861185E-11  0.000000000E+00  0.000000000E+00  0.000000000E+00  0.000000000E+00  1.662524603E-02  1.758531108E-02 
        32  5.294118077E-02  0.000000000E+00 -0.000000000E+00  4.176614610E-10  4.176614610E-10  0.000000000E+00  0.000000000E+00  0.000000000E+00 -1.172441727E-10  1.661732607E-02  5.283501372E-02 
        33  8.823529631E-02  0.000000000E+00 -0.000000000E+00  8.631385606E-10  8.631385051E-10  0.000000000E+00  0.000000000E+00  0.000000000E+00 -4.522422437E-10  1.657590456E-02  8.806746453E-02 
        34  1.235294193E-01  0.000000000E+00 -0.000000000E+00  1.291238783E-09  1.291238783E-09  0.000000000E+00  0.000000000E+00  0.000000000E+00 -1.175554432E-09  1.660739817E-02  1.233301312E-01 
        35  1.588235348E-01  0.000000000E+00 -0.000000000E+00  1.579806175E-09  1.579806175E-09  0.000000000E+00  0.000000000E+00  0.000000000E+00 -2.242450003E-09  1.664703153E-02  1.586092860E-01 
        36  1.941176504E-01  0.000000000E+00 -0.000000000E+00  1.711063069E-09  1.711063069E-09  0.000000000E+00  0.000000000E+00  0.000000000E+00 -3.628946477E-09  1.668644696E-02  1.939163804E-01 
        37  2.294117659E-01  0.000000000E+00 -0.000000000E+00  1.633281954E-09  1.633281954E-09  0.000000000E+00  0.000000000E+00  0.000000000E+00 -5.316053819E-09  1.677777991E-02  2.291981727E-01 
        38  2.647058964E-01  0.000000000E+00 -0.000000000E+00  1.358643864E-09  1.358643864E-09  0.000000000E+00  0.000000000E+00  0.000000000E+00 -7.202138885E-09  1.683993079E-02  2.644547820E-01 
        39  3.000000119E-01  0.000000000E+00 -0.000000000E+00  9.456652128E-10  9.456652128E-10  0.000000000E+00  0.000000000E+00  0.000000000E+00 -9.265165524E-09  1.689162850E-02  2.997513413E-01 
        40  3.352941275E-01  0.000000000E+00 -0.000000000E+00  3.642143809E-10  3.642144086E-10  0.000000000E+00  0.000000000E+00  0.000000000E+00 -1.165939167E-08  1.697639748E-02  3.350120187E-01 
        41  3.705882430E-01  0.000000000E+00 -0.000000000E+00 -4.832897416E-10  4.832897416E-10  0.000000000E+00  0.000000000E+00  0.000000000E+00 -1.426810226E-08  1.700154319E-02  3.702934682E-01 
        42  4.058823586E-01  0.000000000E+00 -0.000000000E+00 -1.502992286E-09  1.502992286E-09  0.000000000E+00  0.000000000E+00  0.000000000E+00 -1.700046681E-08  1.702416129E-02  4.055914581E-01 
        43  4.411764741E-01  0.000000000E+00 -0.000000000E+00 -2.728048454E-09  2.728048454E-09  0.000000000E+00  0.000000000E+00  0.000000000E+00 -2.007275945E-08  1.706292666E-02  4.408771396E-01 
        44  4.764705896E-01  0.000000000E+00 -0.000000000E+00 -4.250462204E-09  4.250462204E-09  0.000000000E+00  0.000000000E+00  0.000000000E+00 -2.338626537E-08  1.707672700E-02  4.761659801E-01 
        45  5.117647052E-01  0.000000000E+00 -9.830099256E-17 -6.072130798E-09  6.072130798E-09  0.000000000E+00  0.000000000E+00  0.000000000E+00 -2.696238965E-08  1.709034853E-02  5.114642978E-01 
        46  5.470588207E-01  0.000000000E+00 -0.000000000E+00 -8.254994022E-09  8.254994022E-09  0.000000000E+00  0.000000000E+00  0.000000000E+00 -3.079573219E-08  1.707782969E-02  5.467410684E-01 
        47  5.823529959E-01  0.000000000E+00 -0.000000000E+00 -1.084850343E-08  1.084850432E-08  0.000000000E+00  0.000000000E+00  0.000000000E+00 -3.489121525E-08  1.705402322E-02  5.820403099E-01 
        48  6.176470518E-01  0.000000000E+00 -0.000000000E+00 -1.393178106E-08  1.393178106E-08  0.000000000E+00  0.000000000E+00  0.000000000E+00 -3.919855018E-08  1.702770405E-02  6.173223257E-01 
        49  6.529412270E-01  0.000000000E+00 -0.000000000E+00 -1.755716461E-08  1.755716461E-08  0.000000000E+00  0.000000000E+00  0.000000000E+00 -4.367901596E-08  1.700201072E-02  6.526240110E-01 
        50  6.882352829E-01  0.000000000E+00 -0.000000000E+00 -2.179871927E-08  2.179871927E-08  0.000000000E+00  0.000000000E+00  0.000000000E+00 -4.823650812E-08  1.699794084E-02  6.879225969E-01 
        51  7.235294580E-01  0.000000000E+00 -0.000000000E+00 -2.671689536E-08  2.671689359E-08  0.000000000E+00  0.000000000E+00  0.000000000E+00 -5.277345139E-08  1.699605584E-02  7.232191563E-01 
        52  7.588235140E-01  0.000000000E+00 -0.000000000E+00 -3.236434765E-08  3.236434765E-08  0.000000000E+00  0.000000000E+00  0.000000000E+00 -5.712583473E-08  1.698982529E-02  7.585036755E-01 
        53  7.941176891E-01  0.000000000E+00 -0.000000000E+00 -3.879599220E-08  3.879599220E-08  0.000000000E+00  0.000000000E+00  0.000000000E+00 -6.110536788E-08  1.699733175E-02  7.937816978E-01 
        54  8.294117451E-01  0.000000000E+00 -3.932039702E-16 -4.601497849E-08  4.601497849E-08  0.000000000E+00  0.000000000E+00  0.000000000E+00 -6.445859668E-08  1.699517109E-02  8.290617466E-01 
        55  8.647059202E-01  0.000000000E+00 -0.000000000E+00 -5.394302249E-08  5.394302249E-08  0.000000000E+00  0.000000000E+00  0.000000000E+00 -6.695402277E-08  1.699430309E-02  8.643375039E-01 
        56  8.999999762E-01  0.000000000E+00 -0.000000000E+00 -6.287231713E-08  6.287231713E-08  0.000000000E+00  0.000000000E+00  0.000000000E+00 -6.822018861E-08  1.698556542E-02  8.996353745E-01 
        57  9.352941513E-01  0.000000000E+00 -0.000000000E+00 -7.231975729E-08  7.231975729E-08  0.000000000E+00  0.000000000E+00  0.000000000E+00 -6.751772474E-08  1.697719097E-02  9.349272847E-01 
        58  9.705882072E-01  0.000000000E+00 -0.000000000E+00 -8.232674276E-08  8.232674276E-08  0.000000000E+00  0.000000000E+00  0.000000000E+00 -6.453863222E-08  1.697858609E-02  9.702293873E-01 
        59  1.005882382E+00  0.000000000E+00 -0.000000000E+00 -9.258133815E-08  9.258133815E-08  0.000000000E+00  0.000000000E+00  0.000000000E+00 -5.896746913E-08  1.698799804E-02  1.005521059E+00 
        60  1.041176558E+00  0.000000000E+00 -0.000000000E+00 -1.029120327E-07  1.029120398E-07  0.000000000E+00  0.000000000E+00  0.000000000E+00 -5.017333038E-08  1.699813083E-02  1.040819407E+00 
        61  1.076470613E+00  0.000000000E+00 -0.000000000E+00 -1.128958402E-07  1.128958402E-07  0.000000000E+00  0.000000000E+00  0.000000000E+00 -3.772553114E-08  1.701856032E-02  1.076138258E+00 
        62  1.111764669E+00  0.000000000E+00 -0.000000000E+00 -1.221321213E-07  1.221321213E-07  0.000000000E+00  0.000000000E+00  0.000000000E+00 -2.123600673E-08  1.701257378E-02  1.111458063E+00 
        63  1.147058845E+00  0.000000000E+00 -0.000000000E+00 -1.301019097E-07  1.301019097E-07  0.000000000E+00  0.000000000E+00  0.000000000E+00 -5.315755058E-10  1.702358946E-02  1.146779418E+00 
        64  1.182353020E+00  0.000000000E+00 -0.000000000E+00 -1.363973468E-07  1.363973468E-07  0.000000000E+00  0.000000000E+00  0.000000000E+00  2.432450152E-08  1.698695309E-02  1.182118773E+00 
        65  1.217647076E+00  0.000000000E+00 -0.000000000E+00 -1.401034240E-07  1.401034240E-07  0.000000000E+00  0.000000000E+00  0.000000000E+00  5.321749441E-08  1.693484187E-02  1.217461228E+00 
        66  1.252941132E+00  0.000000000E+00 -0.000000000E+00 -1.410645467E-07  1.410645467E-07  0.000000000E+00  0.000000000E+00  0.000000000E+00  8.518194505E-08  1.690419205E-02  1.252774835E+00 
        67  1.288235307E+00  0.000000000E+00 -0.000000000E+00 -1.387038679E-07  1.387038679E-07  0.000000000E+00  0.000000000E+00  0.000000000E+00  1.192132117E-07  1.686711982E-02  1.288132429E+00 
        68  1.323529482E+00  0.000000000E+00  3.932039702E-16 -1.329416932E-07  1.329416932E-07  0.000000000E+00  0.000000000E+00  0.000000000E+00  1.539055177E-07  1.687512174E-02  1.323433518E+00 
        69  1.358823538E+00  0.000000000E+00 -0.000000000E+00 -1.236312670E-07  1.236312670E-07  0.000000000E+00  0.000000000E+00  0.000000000E+00  1.876739191E-07  1.689015888E-02  1.358742595E+00 
        70  1.394117594E+00  0.000000000E+00 -0.000000000E+00 -1.111373109E-07  1.111373109E-07  0.000000000E+00  0.000000000E+00  0.000000000E+00  2.187856438E-07  1.690133289E-02  1.394052744E+00 
        71  1.429411769E+00  0.000000000E+00 -0.000000000E+00 -9.599438755E-08  9.599438755E-08  0.000000000E+00  0.000000000E+00  0.000000000E+00  2.456482378E-07  1.689874940E-02  1.429355860E+00 
        72  1.464705944E+00  0.000000000E+00 -0.000000000E+00 -7.914593425E-08  7.914592715E-08  0.000000000E+00  0.000000000E+00  0.000000000E+00  2.669932542E-07  1.690192148E-02  1.464659095E+00 
        73  1.500000000E+00  0.000000000E+00 -0.000000000E+00 -6.165495137E-08  6.165494426E-08  0.000000000E+00  0.000000000E+00  0.000000000E+00  2.821730618E-07  1.691083238E-02  1.499952674E+00 
        74  1.535294056E+00  0.000000000E+00  7.864079405E-16 -4.448265400E-08  4.448265400E-08  0.000000000E+00  0.000000000E+00  0.000000000E+00  2.910701369E-07  1.693195105E-02  1.535225987E+00 
        75  1.570588231E+00  0.000000000E+00 -0.000000000E+00 -2.877261274E-08  2.877261274E-08  0.000000000E+00  0.000000000E+00  0.000000000E+00  2.941765729E-07  1.694344543E-02  1.570510626E+00 
        76  1.605882406E+00  0.000000000E+00 -0.000000000E+00 -1.577731190E-08  1.577731190E-08  0.000000000E+00  0.000000000E+00  0.000000000E+00  2.921706255E-07  1.692871936E-02  1.605761409E+00 
        77  1.641176462E+00  0.000000000E+00 -3.932039702E-16 -6.081127601E-09  6.081127601E-09  0.000000000E+00  0.000000000E+00  0.000000000E+00  2.870913818E-07  1.690031216E-02  1.641055107E+00 
        78  1.676470518E+00  0.000000000E+00 -0.000000000E+00 -1.431763041E-10  1.431763041E-10  0.000000000E+00  0.000000000E+00  0.000000000E+00  2.806797852E-07  1.686446927E-02  1.676326632E+00 
        79  1.711764693E+00  0.000000000E+00 -0.000000000E+00  2.669466870E-09  2.669466870E-09  0.000000000E+00  0.000000000E+00  0.000000000E+00  2.748871282E-07  1.680507883E-02  1.711641550E+00 
        80  1.747058868E+00  0.000000000E+00 -0.000000000E+00  2.539231936E-09  2.539232158E-09  0.000000000E+00  0.000000000E+00  0.000000000E+00  2.698307355E-07  1.675136387E-02  1.746986747E+00 
        81  1.782352924E+00  0.000000000E+00 -0.000000000E+00  1.965347607E-10  1.965347607E-10  0.000000000E+00  0.000000000E+00  0.000000000E+00  2.678995656E-07  1.672038063E-02  1.782301903E+00 
        82  1.799999952E+00  1.666666754E-02  2.249026937E-10 -0.000000000E+00  2.249026937E-10  0.000000000E+00  0.000000000E+00  0.000000000E+00  2.678995656E-07  1.672038063E-02  1.782301903E+00 
        83  1.799999952E+00  5.000000447E-02  2.246661968E-09 -0.000000000E+00  2.246661968E-09  0.000000000E+00  0.000000000E+00  0.000000000E+00  2.660184464E-07  5.008469895E-02  1.782280803E+00 
        84  1.799999952E+00  8.333333582E-02  3.137338611E-09 -0.000000000E+00  3.137338611E-09  0.000000000E+00  0.000000000E+00  0.000000000E+00  2.620776627E-07  8.347176760E-02  1.782229781E+00 
        85  1.799999952E+00  1.166666746E-01  2.484765282E-09 -0.000000000E+00  2.484765060E-09  0.000000000E+00  0.000000000E+00  0.000000000E+00  2.558233803E-07  1.168264523E-01  1.782258511E+00 
        86  1.799999952E+00  1.500000060E-01  1.324185761E-10 -0.000000000E+00  1.324185761E-10  0.000000000E+00  0.000000000E+00  0.000000000E+00  2.478789156E-07  1.501829922E-01  1.782313585E+00 
        87  1.799999952E+00  1.833333373E-01 -3.844606855E-09 -0.000000000E+00  3.844606855E-09  0.000000000E+00  0.000000000E+00  0.000000000E+00  2.389287204E-07  1.835066229E-01  1.782363415E+00 
        88  1.799999952E+00  2.166666687E-01 -9.296551973E-09 -0.000000000E+00  9.296551973E-09  0.000000000E+00  0.000000000E+00  0.000000000E+00  2.285984522E-07  2.168589532E-01  1.782473922E+00 
        89  1.799999952E+00  2.500000000E-01 -1.653364201E-08 -0.000000000E+00  1.653364201E-08  0.000000000E+00  0.000000000E+00  0.000000000E+00  2.170691431E-07  2.502265573E-01  1.782540560E+00 
        90  1.799999952E+00  2.833333611E-01 -2.579170477E-08 -0.000000000E+00  2.579170300E-08  0.000000000E+00  0.000000000E+00  0.000000000E+00  2.045574234E-07  2.835554481E-01  1.782595992E+00 
        91  1.799999952E+00  3.166666627E-01 -3.725057240E-08 -0.000000000E+00  3.725057596E-08  0.000000000E+00  0.000000000E+00  0.000000000E+00  1.911951699E-07  3.169190288E-01  1.782688022E+00 
        92  1.799999952E+00  3.500000238E-01 -5.128886826E-08 -8.326672155E-16  5.128886826E-08  0.000000000E+00  0.000000000E+00  0.000000000E+00  1.774178173E-07  3.502655923E-01  1.782716870E+00 
        93  1.799999952E+00  3.833333254E-01 -6.819257692E-08 -0.000000000E+00  6.819257692E-08  0.000000000E+00  0.000000000E+00  0.000000000E+00  1.637860407E-07  3.835947514E-01  1.782742381E+00 
        94  1.799999952E+00  4.166666865E-01 -8.825630005E-08 -0.000000000E+00  8.825630005E-08  0.000000000E+00  0.000000000E+00  0.000000000E+00  1.510711058E-07  4.169350863E-01  1.782785058E+00 
        95  1.799999952E+00  4.499999881E-01 -1.113853614E-07 -0.000000000E+00  1.113853614E-07  0.000000000E+00  0.000000000E+00  0.000000000E+00  1.405286838E-07  4.502706528E-01  1.782797575E+00 
        96  1.799999952E+00  4.833333492E-01 -1.387973754E-07 -0.000000000E+00  1.387973754E-07  0.000000000E+00  0.000000000E+00  0.000000000E+00  1.333196309E-07  4.835976660E-01  1.782811403E+00 
        97  1.799999952E+00  5.166666508E-01 -1.687148199E-07 -0.000000000E+00  1.687148199E-07  0.000000000E+00  0.000000000E+00  0.000000000E+00  1.321933212E-07  5.169305801E-01  1.782823920E+00 
        98  1.799999952E+00  5.500000119E-01 -2.035231290E-07 -0.000000000E+00  2.035231290E-07  0.000000000E+00  0.000000000E+00  0.000000000E+00  1.397848166E-07  5.502606034E-01  1.782821894E+00 
        99  1.799999952E+00  5.833333731E-01 -2.409279034E-07 -0.000000000E+00  2.409279034E-07  0.000000000E+00  0.000000000E+00  0.000000000E+00  1.580733056E-07  5.835912824E-01  1.782821774E+00 
