cellnumber     x-coordinate     y-coordinate     y-wall-shear     x-wall-shear       wall-shear velocity-magnitude       y-velocity       x-velocity         pressure     y-coordinate     x-coordinate 
         1  9.327022831E-16  9.871795177E-01  2.646530106E-07 -0.000000000E+00  2.646530106E-07  0.000000000E+00  0.000000000E+00  0.000000000E+00 -4.674066929E-07  9.872229099E-01  1.219300274E-02 
         2  8.540176868E-16  9.615384340E-01  1.148413489E-07 -0.000000000E+00  1.148413489E-07  0.000000000E+00  0.000000000E+00  0.000000000E+00 -2.716724907E-07  9.616132975E-01  1.218760852E-02 
         3  8.312439355E-16  9.358974695E-01  9.101941600E-08 -0.000000000E+00  9.101940890E-08  0.000000000E+00  0.000000000E+00  0.000000000E+00 -1.619698367E-07  9.360156059E-01  1.215838827E-02 
         4  8.084700783E-16  9.102563858E-01  6.990908474E-08 -0.000000000E+00  6.990908474E-08  0.000000000E+00  0.000000000E+00  0.000000000E+00 -1.094276527E-07  9.104097486E-01  1.217584498E-02 
         5  7.856963269E-16  8.846154213E-01  5.552630000E-08 -0.000000000E+00  5.552630356E-08  0.000000000E+00  0.000000000E+00  0.000000000E+00 -8.128251494E-08  8.847913742E-01  1.220678724E-02 
         6  7.629224697E-16  8.589743376E-01  4.537098874E-08 -5.412337245E-16  4.537098874E-08  0.000000000E+00  0.000000000E+00  0.000000000E+00 -6.208539105E-08  8.591540456E-01  1.222963724E-02 
         7  7.401487184E-16  8.333333731E-01  3.796763792E-08 -0.000000000E+00  3.796763792E-08  0.000000000E+00  0.000000000E+00  0.000000000E+00 -4.933057696E-08  8.335400820E-01  1.226854883E-02 
         8  7.173748612E-16  8.076922894E-01  3.263781778E-08 -0.000000000E+00  3.263781778E-08  0.000000000E+00  0.000000000E+00  0.000000000E+00 -4.014538035E-08  8.079108000E-01  1.228155475E-02 
         9  6.946011098E-16  7.820513248E-01  2.853164460E-08 -0.000000000E+00  2.853164460E-08  0.000000000E+00  0.000000000E+00  0.000000000E+00 -3.324607789E-08  7.822741866E-01  1.228952408E-02 
        10  6.718272526E-16  7.564102411E-01  2.530309118E-08 -0.000000000E+00  2.530309295E-08  0.000000000E+00  0.000000000E+00  0.000000000E+00 -2.782590514E-08  7.566472888E-01  1.231461950E-02 
        11  6.490535013E-16  7.307692766E-01  2.267347199E-08 -0.000000000E+00  2.267347021E-08  0.000000000E+00  0.000000000E+00  0.000000000E+00 -2.343524308E-08  7.310187221E-01  1.233126502E-02 
        12  6.262796441E-16  7.051281929E-01  2.047763026E-08 -0.000000000E+00  2.047763026E-08  0.000000000E+00  0.000000000E+00  0.000000000E+00 -1.977973874E-08  7.053800821E-01  1.234335452E-02 
        13  6.035058927E-16  6.794872284E-01  1.859255150E-08 -0.000000000E+00  1.859255150E-08  0.000000000E+00  0.000000000E+00  0.000000000E+00 -1.668366600E-08  6.797527075E-01  1.236444712E-02 
        14  5.807320355E-16  6.538461447E-01  1.694173335E-08 -0.000000000E+00  1.694173335E-08  0.000000000E+00  0.000000000E+00  0.000000000E+00 -1.401500871E-08  6.541167498E-01  1.237084065E-02 
        15  5.579582842E-16  6.282051802E-01  1.546482764E-08 -0.000000000E+00  1.546482764E-08  0.000000000E+00  0.000000000E+00  0.000000000E+00 -1.169326858E-08  6.284769773E-01  1.237528957E-02 
        16  5.351844270E-16  6.025640965E-01  1.412285044E-08 -0.000000000E+00  1.412285044E-08  0.000000000E+00  0.000000000E+00  0.000000000E+00 -9.660497291E-09  6.028419137E-01  1.238240674E-02 
        17  5.124106756E-16  5.769231319E-01  1.288752394E-08 -0.000000000E+00  1.288752394E-08  0.000000000E+00  0.000000000E+00  0.000000000E+00 -7.872159813E-09  5.772025585E-01  1.238395181E-02 
        18  4.896368184E-16  5.512820482E-01  1.173763930E-08 -0.000000000E+00  1.173763930E-08  0.000000000E+00  0.000000000E+00  0.000000000E+00 -6.298307653E-09  5.515624285E-01  1.238467637E-02 
        19  4.668630671E-16  5.256410837E-01  1.065856203E-08 -0.000000000E+00  1.065856203E-08  0.000000000E+00  0.000000000E+00  0.000000000E+00 -4.915273522E-09  5.259208679E-01  1.238879375E-02 
        20  4.440892099E-16  5.000000000E-01  9.640320542E-09 -0.000000000E+00  9.640320542E-09  0.000000000E+00  0.000000000E+00  0.000000000E+00 -3.705294960E-09  5.002790093E-01  1.239034720E-02 
        21  4.213154056E-16  4.743589759E-01  8.676193097E-09 -0.000000000E+00  8.676193097E-09  0.000000000E+00  0.000000000E+00  0.000000000E+00 -2.653510078E-09  4.746357501E-01  1.239291858E-02 
        22  3.985416013E-16  4.487179518E-01  7.760194265E-09 -0.000000000E+00  7.760194265E-09  0.000000000E+00  0.000000000E+00  0.000000000E+00 -1.747269773E-09  4.489818513E-01  1.240013726E-02 
        23  3.757677970E-16  4.230769277E-01  6.891055282E-09 -0.000000000E+00  6.891055282E-09  0.000000000E+00  0.000000000E+00  0.000000000E+00 -9.782470389E-10  4.233300090E-01  1.239841525E-02 
        24  3.529939927E-16  3.974359035E-01  6.065192792E-09 -0.000000000E+00  6.065192792E-09  0.000000000E+00  0.000000000E+00  0.000000000E+00 -3.355514200E-10  3.976769447E-01  1.240408048E-02 
        25  3.302201885E-16  3.717948794E-01  5.284062965E-09 -0.000000000E+00  5.284063409E-09  0.000000000E+00  0.000000000E+00  0.000000000E+00  1.862912047E-10  3.720420897E-01  1.239480730E-02 
        26  3.074463842E-16  3.461538553E-01  4.546027998E-09 -0.000000000E+00  4.546028443E-09  0.000000000E+00  0.000000000E+00  0.000000000E+00  5.981347084E-10  3.464167118E-01  1.239781547E-02 
        27  2.846725799E-16  3.205128312E-01  3.852362429E-09 -3.382710778E-17  3.852362429E-09  0.000000000E+00  0.000000000E+00  0.000000000E+00  9.057251615E-10  3.207926452E-01  1.239026338E-02 
        28  2.618987756E-16  2.948718071E-01  3.206581001E-09 -0.000000000E+00  3.206581001E-09  0.000000000E+00  0.000000000E+00  0.000000000E+00  1.119912385E-09  2.951543927E-01  1.239590906E-02 
        29  2.391249714E-16  2.692307830E-01  2.608582905E-09 -0.000000000E+00  2.608582683E-09  0.000000000E+00  0.000000000E+00  0.000000000E+00  1.249098158E-09  2.694991231E-01  1.238984242E-02 
        30  2.163511671E-16  2.435897589E-01  2.052384485E-09 -0.000000000E+00  2.052384485E-09  0.000000000E+00  0.000000000E+00  0.000000000E+00  1.298771313E-09  2.438452244E-01  1.239247900E-02 
        31  1.935773496E-16  2.179487199E-01  1.550963025E-09 -0.000000000E+00  1.550963025E-09  0.000000000E+00  0.000000000E+00  0.000000000E+00  1.258967819E-09  2.181829363E-01  1.238078251E-02 
        32  1.708035453E-16  1.923076957E-01  1.113624637E-09 -0.000000000E+00  1.113624637E-09  0.000000000E+00  0.000000000E+00  0.000000000E+00  1.157705376E-09  1.925286651E-01  1.236873865E-02 
        33  1.480297410E-16  1.666666716E-01  7.376516065E-10 -0.000000000E+00  7.376516065E-10  0.000000000E+00  0.000000000E+00  0.000000000E+00  1.009401007E-09  1.668806225E-01  1.236310974E-02 
        34  1.252559368E-16  1.410256475E-01  4.248094376E-10 -1.691355389E-17  4.248094376E-10  0.000000000E+00  0.000000000E+00  0.000000000E+00  8.222506009E-10  1.411977708E-01  1.234778203E-02 
        35  1.024821325E-16  1.153846234E-01  1.878143474E-10 -0.000000000E+00  1.878143335E-10  0.000000000E+00  0.000000000E+00  0.000000000E+00  6.091778193E-10  1.155181900E-01  1.232313178E-02 
        36  7.970832158E-17  8.974359185E-02  2.805967091E-11 -0.000000000E+00  2.805966917E-11  0.000000000E+00  0.000000000E+00  0.000000000E+00  4.030487055E-10  8.984853327E-02  1.231984887E-02 
        37  5.693451731E-17  6.410256773E-02 -5.853176971E-11 -0.000000000E+00  5.853176971E-11  0.000000000E+00  0.000000000E+00  0.000000000E+00  2.137405808E-10  6.415876746E-02  1.228223462E-02 
        38  3.416070972E-17  3.846153989E-02 -6.453858975E-11 -0.000000000E+00  6.453858975E-11  0.000000000E+00  0.000000000E+00  0.000000000E+00  6.438527489E-11  3.849475831E-02  1.225871034E-02 
        39  1.138690297E-17  1.282051299E-02 -8.144596109E-12 -0.000000000E+00  8.144596109E-12  0.000000000E+00  0.000000000E+00  0.000000000E+00  0.000000000E+00  1.284349989E-02  1.224574726E-02 
        40  1.222222205E-02  0.000000000E+00 -0.000000000E+00  4.873470551E-12  4.873470551E-12  0.000000000E+00  0.000000000E+00  0.000000000E+00  0.000000000E+00  1.284349989E-02  1.224574726E-02 
        41  3.666666523E-02  0.000000000E+00 -0.000000000E+00  6.220805815E-11  6.220805815E-11  0.000000000E+00  0.000000000E+00  0.000000000E+00 -5.461700189E-11  1.285373326E-02  3.670315444E-02 
        42  6.111110747E-02  0.000000000E+00 -0.000000000E+00  5.976774631E-11  5.976774631E-11  0.000000000E+00  0.000000000E+00  0.000000000E+00 -1.890619744E-10  1.287672110E-02  6.117112935E-02 
        43  8.555555344E-02  0.000000000E+00 -0.000000000E+00 -1.253168055E-11  1.253168055E-11  0.000000000E+00  0.000000000E+00  0.000000000E+00 -3.567639517E-10  1.287855394E-02  8.564665914E-02 
        44  1.099999994E-01  0.000000000E+00 -0.000000000E+00 -1.481389872E-10  1.481389872E-10  0.000000000E+00  0.000000000E+00  0.000000000E+00 -5.435997763E-10  1.285370532E-02  1.101196334E-01 
        45  1.344444454E-01  0.000000000E+00 -0.000000000E+00 -3.494301237E-10  3.494300960E-10  0.000000000E+00  0.000000000E+00  0.000000000E+00 -7.344458930E-10  1.284530479E-02  1.345822215E-01 
        46  1.588888764E-01  0.000000000E+00 -0.000000000E+00 -6.076401049E-10  6.076400494E-10  0.000000000E+00  0.000000000E+00  0.000000000E+00 -9.032056769E-10  1.278808434E-02  1.590282470E-01 
        47  1.833333373E-01  0.000000000E+00 -0.000000000E+00 -9.111640331E-10  9.111640886E-10  0.000000000E+00  0.000000000E+00  0.000000000E+00 -1.038183317E-09  1.276845206E-02  1.834624708E-01 
        48  2.077777684E-01  0.000000000E+00 -0.000000000E+00 -1.243890990E-09  1.243890990E-09  0.000000000E+00  0.000000000E+00  0.000000000E+00 -1.130356364E-09  1.273608115E-02  2.078799754E-01 
        49  2.322222292E-01  0.000000000E+00 -0.000000000E+00 -1.613604139E-09  1.613604139E-09  0.000000000E+00  0.000000000E+00  0.000000000E+00 -1.177553388E-09  1.269343123E-02  2.323081493E-01 
        50  2.566666603E-01  0.000000000E+00 -0.000000000E+00 -1.992718213E-09  1.992718213E-09  0.000000000E+00  0.000000000E+00  0.000000000E+00 -1.157583696E-09  1.266921498E-02  2.567616999E-01 
        51  2.811111212E-01  0.000000000E+00 -0.000000000E+00 -2.379779929E-09  2.379779929E-09  0.000000000E+00  0.000000000E+00  0.000000000E+00 -1.076962963E-09  1.264619734E-02  2.812000513E-01 
        52  3.055555522E-01  0.000000000E+00 -0.000000000E+00 -2.757673201E-09  2.757672979E-09  0.000000000E+00  0.000000000E+00  0.000000000E+00 -9.440883630E-10  1.260924153E-02  3.056490123E-01 
        53  3.299999833E-01  0.000000000E+00 -0.000000000E+00 -3.130790516E-09  3.130790516E-09  0.000000000E+00  0.000000000E+00  0.000000000E+00 -7.550665648E-10  1.259679347E-02  3.300969899E-01 
        54  3.544444442E-01  0.000000000E+00 -0.000000000E+00 -3.486394284E-09  3.486394284E-09  0.000000000E+00  0.000000000E+00  0.000000000E+00 -5.118303004E-10  1.258405391E-02  3.545368314E-01 
        55  3.788889050E-01  0.000000000E+00 -0.000000000E+00 -3.820648242E-09  3.820648242E-09  0.000000000E+00  0.000000000E+00  0.000000000E+00 -2.171829938E-10  1.253870502E-02  3.789897263E-01 
        56  4.033333361E-01  0.000000000E+00 -0.000000000E+00 -4.126931685E-09  4.126931685E-09  0.000000000E+00  0.000000000E+00  0.000000000E+00  1.278132045E-10  1.249349210E-02  4.034643769E-01 
        57  4.277777672E-01  0.000000000E+00  1.774149055E-17 -4.401275344E-09  4.401275344E-09  0.000000000E+00  0.000000000E+00  0.000000000E+00  5.165287087E-10  1.246059220E-02  4.279136956E-01 
        58  4.522222281E-01  0.000000000E+00 -0.000000000E+00 -4.638254225E-09  4.638254225E-09  0.000000000E+00  0.000000000E+00  0.000000000E+00  9.477483243E-10  1.241201907E-02  4.523873031E-01 
        59  4.766666889E-01  0.000000000E+00 -0.000000000E+00 -4.832731992E-09  4.832731992E-09  0.000000000E+00  0.000000000E+00  0.000000000E+00  1.413535622E-09  1.240862813E-02  4.768328369E-01 
        60  5.011110902E-01  0.000000000E+00 -0.000000000E+00 -4.982176893E-09  4.982176449E-09  0.000000000E+00  0.000000000E+00  0.000000000E+00  1.907842995E-09  1.240526699E-02  5.012761950E-01 
        61  5.255555511E-01  0.000000000E+00  4.435372637E-18 -5.083480303E-09  5.083480303E-09  0.000000000E+00  0.000000000E+00  0.000000000E+00  2.424414447E-09  1.240019593E-02  5.257211924E-01 
        62  5.500000119E-01  0.000000000E+00 -0.000000000E+00 -5.134838776E-09  5.134838776E-09  0.000000000E+00  0.000000000E+00  0.000000000E+00  2.956281442E-09  1.239850093E-02  5.501661897E-01 
        63  5.744444132E-01  0.000000000E+00 -0.000000000E+00 -5.132449576E-09  5.132449576E-09  0.000000000E+00  0.000000000E+00  0.000000000E+00  3.495254308E-09  1.239682082E-02  5.746100545E-01 
        64  5.988888741E-01  0.000000000E+00 -0.000000000E+00 -5.077497978E-09  5.077497978E-09  0.000000000E+00  0.000000000E+00  0.000000000E+00  4.033831047E-09  1.239428483E-02  5.990547538E-01 
        65  6.233333349E-01  0.000000000E+00  8.870745273E-18 -4.968820910E-09  4.968820910E-09  0.000000000E+00  0.000000000E+00  0.000000000E+00  4.563373235E-09  1.239343733E-02  6.234995127E-01 
        66  6.477777958E-01  0.000000000E+00 -0.000000000E+00 -4.807194642E-09  4.807194642E-09  0.000000000E+00  0.000000000E+00  0.000000000E+00  5.074684672E-09  1.239259727E-02  6.479436755E-01 
        67  6.722222567E-01  0.000000000E+00 -1.774149055E-17 -4.594678860E-09  4.594678860E-09  0.000000000E+00  0.000000000E+00  0.000000000E+00  5.559260607E-09  1.239132974E-02  6.723882556E-01 
        68  6.966666579E-01  0.000000000E+00 -0.000000000E+00 -4.334229864E-09  4.334229864E-09  0.000000000E+00  0.000000000E+00  0.000000000E+00  6.008407549E-09  1.239090599E-02  6.968328357E-01 
        69  7.211111188E-01  0.000000000E+00 -0.000000000E+00 -4.029690359E-09  4.029690359E-09  0.000000000E+00  0.000000000E+00  0.000000000E+00  6.414092368E-09  1.239048503E-02  7.212771177E-01 
        70  7.455555201E-01  0.000000000E+00 -0.000000000E+00 -3.686966954E-09  3.686966954E-09  0.000000000E+00  0.000000000E+00  0.000000000E+00  6.767581606E-09  1.241100114E-02  7.457131743E-01 
        71  7.699999809E-01  0.000000000E+00 -0.000000000E+00 -3.311704688E-09  3.311704688E-09  0.000000000E+00  0.000000000E+00  0.000000000E+00  7.062298302E-09  1.244388521E-02  7.701314688E-01 
        72  7.944444418E-01  0.000000000E+00 -0.000000000E+00 -2.913569164E-09  2.913569164E-09  0.000000000E+00  0.000000000E+00  0.000000000E+00  7.293781579E-09  1.246482506E-02  7.945673466E-01 
        73  8.188889027E-01  0.000000000E+00 -0.000000000E+00 -2.502855923E-09  2.502855923E-09  0.000000000E+00  0.000000000E+00  0.000000000E+00  7.459046714E-09  1.250436995E-02  8.189894557E-01 
        74  8.433333635E-01  0.000000000E+00 -0.000000000E+00 -2.086281370E-09  2.086281370E-09  0.000000000E+00  0.000000000E+00  0.000000000E+00  7.560928772E-09  1.250984892E-02  8.434336782E-01 
        75  8.677777648E-01  0.000000000E+00 -0.000000000E+00 -1.672110006E-09  1.672110006E-09  0.000000000E+00  0.000000000E+00  0.000000000E+00  7.593311757E-09  1.251650974E-02  8.678818941E-01 
        76  8.922222257E-01  0.000000000E+00 -0.000000000E+00 -1.272358108E-09  1.272358108E-09  0.000000000E+00  0.000000000E+00  0.000000000E+00  7.548188741E-09  1.251901407E-02  8.923249245E-01 
        77  9.166666865E-01  0.000000000E+00 -0.000000000E+00 -9.133270251E-10  9.133270251E-10  0.000000000E+00  0.000000000E+00  0.000000000E+00  7.446244954E-09  1.251618750E-02  9.167701006E-01 
        78  9.411110878E-01  0.000000000E+00  3.548298109E-17 -5.906350409E-10  5.906350409E-10  0.000000000E+00  0.000000000E+00  0.000000000E+00  7.296638405E-09  1.251321100E-02  9.412133098E-01 
        79  9.655555487E-01  0.000000000E+00 -0.000000000E+00 -3.224866207E-10  3.224865930E-10  0.000000000E+00  0.000000000E+00  0.000000000E+00  7.107384459E-09  1.253751945E-02  9.656588435E-01 
        80  9.900000095E-01  0.000000000E+00 -0.000000000E+00 -1.180131548E-10  1.180131548E-10  0.000000000E+00  0.000000000E+00  0.000000000E+00  6.900445104E-09  1.257127337E-02  9.900838733E-01 
        81  1.014444351E+00  0.000000000E+00 -0.000000000E+00  1.350545630E-11  1.350545630E-11  0.000000000E+00  0.000000000E+00  0.000000000E+00  6.693537280E-09  1.259840839E-02  1.014528632E+00 
        82  1.038888931E+00  0.000000000E+00 -0.000000000E+00  7.530560203E-11  7.530560203E-11  0.000000000E+00  0.000000000E+00  0.000000000E+00  6.517638429E-09  1.267363038E-02  1.038952589E+00 
        83  1.063333273E+00  0.000000000E+00 -0.000000000E+00  6.896908739E-11  6.896908739E-11  0.000000000E+00  0.000000000E+00  0.000000000E+00  6.380239892E-09  1.272633765E-02  1.063365817E+00 
        84  1.087777853E+00  0.000000000E+00 -0.000000000E+00  4.941982153E-12  4.941981720E-12  0.000000000E+00  0.000000000E+00  0.000000000E+00  6.324426760E-09  1.276780572E-02  1.087808967E+00 
        85  1.100000024E+00  1.282051299E-02  7.851106050E-12 -0.000000000E+00  7.851106050E-12  0.000000000E+00  0.000000000E+00  0.000000000E+00  6.324426760E-09  1.276780572E-02  1.087808967E+00 
        86  1.100000024E+00  3.846153989E-02  7.236303223E-11 -0.000000000E+00  7.236303223E-11  0.000000000E+00  0.000000000E+00  0.000000000E+00  6.261167140E-09  3.836736456E-02  1.087810159E+00 
        87  1.100000024E+00  6.410256773E-02  7.721116801E-11 -0.000000000E+00  7.721116801E-11  0.000000000E+00  0.000000000E+00  0.000000000E+00  6.105577821E-09  6.395578384E-02  1.087841392E+00 
        88  1.100000024E+00  8.974359185E-02  5.732888990E-12 -0.000000000E+00  5.732888990E-12  0.000000000E+00  0.000000000E+00  0.000000000E+00  5.908848522E-09  8.955289423E-02  1.087826252E+00 
        89  1.100000024E+00  1.153846234E-01 -1.376909697E-10 -0.000000000E+00  1.376909697E-10  0.000000000E+00  0.000000000E+00  0.000000000E+00  5.675556469E-09  1.151780114E-01  1.087804198E+00 
        90  1.100000024E+00  1.410256475E-01 -3.582054930E-10  1.691355389E-17  3.582054930E-10  0.000000000E+00  0.000000000E+00  0.000000000E+00  5.433122841E-09  1.408166736E-01  1.087787867E+00 
        91  1.100000024E+00  1.666666716E-01 -6.498406258E-10 -0.000000000E+00  6.498406258E-10  0.000000000E+00  0.000000000E+00  0.000000000E+00  5.199145559E-09  1.664341986E-01  1.087747574E+00 
        92  1.100000024E+00  1.923076957E-01 -1.008682138E-09 -0.000000000E+00  1.008682138E-09  0.000000000E+00  0.000000000E+00  0.000000000E+00  4.989130886E-09  1.920512319E-01  1.087719440E+00 
        93  1.100000024E+00  2.179487199E-01 -1.428439478E-09 -3.382710778E-17  1.428439478E-09  0.000000000E+00  0.000000000E+00  0.000000000E+00  4.812486409E-09  2.176846266E-01  1.087701082E+00 
        94  1.100000024E+00  2.435897589E-01 -1.904698621E-09 -0.000000000E+00  1.904698621E-09  0.000000000E+00  0.000000000E+00  0.000000000E+00  4.675900556E-09  2.433050722E-01  1.087665677E+00 
        95  1.100000024E+00  2.692307830E-01 -2.438751201E-09 -0.000000000E+00  2.438751201E-09  0.000000000E+00  0.000000000E+00  0.000000000E+00  4.579109980E-09  2.689446807E-01  1.087659121E+00 
        96  1.100000024E+00  2.948718071E-01 -3.042163410E-09  6.765421556E-17  3.042163410E-09  0.000000000E+00  0.000000000E+00  0.000000000E+00  4.532214160E-09  2.945891023E-01  1.087651730E+00 
        97  1.100000024E+00  3.205128312E-01 -3.707045337E-09 -0.000000000E+00  3.707045337E-09  0.000000000E+00  0.000000000E+00  0.000000000E+00  4.566577338E-09  3.202283680E-01  1.087641597E+00 
        98  1.100000024E+00  3.461538553E-01 -4.434999479E-09 -0.000000000E+00  4.434999479E-09  0.000000000E+00  0.000000000E+00  0.000000000E+00  4.674414189E-09  3.458661437E-01  1.087636828E+00 
        99  1.100000024E+00  3.717948794E-01 -5.223050437E-09 -0.000000000E+00  5.223050437E-09  0.000000000E+00  0.000000000E+00  0.000000000E+00  4.849541657E-09  3.715068102E-01  1.087633252E+00 
