cellnumber     x-coordinate     y-coordinate velocity-magnitude       y-velocity       x-velocity         pressure     y-coordinate     x-coordinate 
         1  1.389565039E-02  1.000000000E+00  2.102502094E-06  2.094702950E-06 -1.809271026E-07  2.594161996E-09  1.013870597E+00  1.389546599E-02 
         2  4.168695211E-02  1.000000000E+00  6.310682238E-06  6.203669273E-06 -1.157237193E-06  2.315353020E-09  1.013834000E+00  4.168657959E-02 
         3  6.947825104E-02  1.000000000E+00  1.045239514E-05  1.006219100E-05 -2.829290452E-06  1.827883955E-09  1.013797402E+00  6.947769225E-02 
         4  9.726954997E-02  1.000000000E+00  1.444926602E-05  1.347845864E-05 -5.206961305E-06  1.417365669E-09  1.013760924E+00  9.726880491E-02 
         5  1.250588149E-01  1.000000000E+00  1.822626291E-05  1.632739259E-05 -8.100177183E-06  1.052913201E-09  1.013730288E+00  1.250580400E-01 
         6  1.528460681E-01  1.000000000E+00  2.174556903E-05  1.851703746E-05 -1.140127461E-05  7.532056645E-10  1.013705492E+00  1.528456062E-01 
         7  1.806333065E-01  1.000000000E+00  2.497709283E-05  1.999537017E-05 -1.496797813E-05  5.028968908E-10  1.013680696E+00  1.806331873E-01 
         8  2.084205449E-01  9.999999404E-01  2.790500184E-05  2.073202995E-05 -1.867811807E-05  3.038929108E-10  1.013655901E+00  2.084207535E-01 
         9  2.362048030E-01  1.000000000E+00  3.054536137E-05  2.075450175E-05 -2.241137190E-05  1.458082127E-10  1.013642788E+00  2.362052500E-01 
        10  2.639860511E-01  1.000000000E+00  3.289726737E-05  2.007609510E-05 -2.606109229E-05  2.685244388E-11  1.013641477E+00  2.639864087E-01 
        11  2.917673290E-01  1.000000000E+00  3.497115904E-05  1.874385089E-05 -2.952372051E-05 -6.104374645E-11  1.013640285E+00  2.917675376E-01 
        12  3.195486069E-01  1.000000000E+00  3.677972200E-05  1.681912727E-05 -3.270879097E-05 -1.213042444E-10  1.013639092E+00  3.195486963E-01 
        13  3.473210931E-01  9.999999404E-01  3.833463052E-05  1.437889659E-05 -3.553577335E-05 -1.602564470E-10  1.013656378E+00  3.473210037E-01 
        14  3.750847876E-01  1.000000000E+00  3.964280768E-05  1.150761273E-05 -3.793582800E-05 -1.829629087E-10  1.013692260E+00  3.750845790E-01 
        15  4.028484821E-01  1.000000000E+00  4.069983697E-05  8.296687156E-06 -3.984522118E-05 -1.944356759E-10  1.013728023E+00  4.028481245E-01 
        16  4.306122065E-01  1.000000000E+00  4.150282257E-05  4.847012860E-06 -4.121881648E-05 -2.041722763E-10  1.013763905E+00  4.306116998E-01 
        17  4.583686590E-01  1.000000000E+00  4.203576100E-05  1.267560151E-06 -4.201664706E-05 -2.117247072E-10  1.013808846E+00  4.583683014E-01 
        18  4.829562306E-01  1.000000000E+00  4.228836406E-05 -2.334717919E-06 -4.222386633E-05 -2.202860117E-10  1.013862610E+00  4.861177504E-01 
        19  4.968308806E-01  1.000000000E+00  3.669824582E-05 -2.204948032E-06 -3.663194730E-05 -1.494198515E-10  9.861067533E-01  4.861189127E-01 
        20  5.138671994E-01  1.000000000E+00  3.658818969E-05 -5.151717232E-06 -3.622368604E-05 -1.947797479E-10  9.861602187E-01  5.138686299E-01 
        21  5.416164398E-01  1.000000000E+00  3.617211405E-05 -7.914700291E-06 -3.529560126E-05 -2.547401734E-10  9.862136245E-01  5.416183472E-01 
        22  5.693724155E-01  1.000000000E+00  3.543004641E-05 -1.040376719E-05 -3.386812386E-05 -3.345255462E-10  9.862567186E-01  5.693746209E-01 
        23  5.971350670E-01  1.000000000E+00  3.434947939E-05 -1.253506798E-05 -3.198060222E-05 -4.377636309E-10  9.862894416E-01  5.971373320E-01 
        24  6.248977780E-01  1.000000000E+00  3.292539986E-05 -1.423736921E-05 -2.968803165E-05 -5.684788751E-10  9.863221645E-01  6.249001026E-01 
        25  6.526604295E-01  1.000000000E+00  3.116017615E-05 -1.545400482E-05 -2.705790575E-05 -7.283366688E-10  9.863548875E-01  6.526628733E-01 
        26  6.804367304E-01  1.000000000E+00  2.905734982E-05 -1.613896166E-05 -2.416326788E-05 -9.185986416E-10  9.863669276E-01  6.804382801E-01 
        27  7.082266808E-01  1.000000000E+00  2.664617386E-05 -1.628167047E-05 -2.109326488E-05 -1.140158079E-09  9.863578677E-01  7.082268596E-01 
        28  7.360165715E-01  1.000000000E+00  2.396931995E-05 -1.588644045E-05 -1.794851778E-05 -1.392083449E-09  9.863487482E-01  7.360154390E-01 
        29  7.638064623E-01  1.000000000E+00  2.107616820E-05 -1.498114489E-05 -1.482464722E-05 -1.669552496E-09  9.863396883E-01  7.638040185E-01 
        30  7.915935516E-01  9.999999404E-01  1.803097621E-05 -1.361895193E-05 -1.181694734E-05 -1.970504426E-09  9.863242507E-01  7.915916443E-01 
        31  8.193776608E-01  9.999999404E-01  1.491341300E-05 -1.187806902E-05 -9.017836419E-06 -2.289048284E-09  9.863035679E-01  8.193773627E-01 
        32  8.471618295E-01  1.000000000E+00  1.181552852E-05 -9.860057617E-06 -6.510451385E-06 -2.619831241E-09  9.862828255E-01  8.471630812E-01 
        33  8.749459982E-01  1.000000000E+00  8.837727364E-06 -7.686423487E-06 -4.361687388E-06 -2.953107980E-09  9.862621427E-01  8.749487996E-01 
        34  9.027333260E-01  1.000000000E+00  6.090767329E-06 -5.494506695E-06 -2.628277571E-06 -3.285809180E-09  9.862345457E-01  9.027361274E-01 
        35  9.305237532E-01  1.000000000E+00  3.685389174E-06 -3.436950465E-06 -1.330212172E-06 -3.598534581E-09  9.861993194E-01  9.305258393E-01 
        36  9.583142996E-01  1.000000000E+00  1.745403324E-06 -1.670963343E-06 -5.042959970E-07 -3.900225032E-09  9.861640930E-01  9.583154917E-01 
        37  9.861047268E-01  1.000000000E+00  3.674473135E-07 -3.617238633E-07 -6.460172131E-08 -4.061823322E-09  9.861288667E-01  9.861052036E-01 
